# This is the matter power spectrum obtained from CLASS and expanded
# to left (until 1e-12) and to right (until 1e5) with expanded_IPS
# k [h_0/Mpc] 	 P(k) [h_0^(-3) Mpc^3]
1.0e-12 	 9.09707814997435e-6
1.0471285480509328e-12 	 9.508279106688022e-6
1.0964781961432546e-12 	 9.938066935363734e-6
1.1481536214969967e-12 	 1.0387281789225133e-5
1.2022644346175705e-12 	 1.0856801797624306e-5
1.258925411794372e-12 	 1.1347544782617397e-5
1.3182567385566635e-12 	 1.18604700531315e-5
1.3803842646032029e-12 	 1.2396580280230708e-5
1.4454397707463063e-12 	 1.2956923457146595e-5
1.5135612484366529e-12 	 1.3542594947905362e-5
1.5848931924616296e-12 	 1.4154739628555396e-5
1.6595869074381537e-12 	 1.4794554125181583e-5
1.7378008287500586e-12 	 1.546328915308113e-5
1.819700858610757e-12 	 1.6162251961673143e-5
1.905460717964117e-12 	 1.6892808889922258e-5
1.995262314969854e-12 	 1.7656388037270452e-5
2.0892961308551263e-12 	 1.845448205529908e-5
2.1877616239507687e-12 	 1.9288651065578097e-5
2.2908676527691193e-12 	 2.0160525709405827e-5
2.3988329190209764e-12 	 2.1071810335402104e-5
2.5118864315112157e-12 	 2.202428633118442e-5
2.630267991897178e-12 	 2.301981560564102e-5
2.754228703340146e-12 	 2.4060344228607665e-5
2.8840315031287705e-12 	 2.514790623506264e-5
3.0199517204043784e-12 	 2.628462760127764e-5
3.1622776601709534e-12 	 2.7472730400695543e-5
3.311311214828725e-12 	 2.8714537147660305e-5
3.467368504528373e-12 	 3.001247533748904e-5
3.6307805477043294e-12 	 3.136908219176299e-5
3.801893963209205e-12 	 3.2787009618111323e-5
3.981071705538861e-12 	 3.4269029394184786e-5
4.168693834707575e-12 	 3.581803858595245e-5
4.365158322406218e-12 	 3.7437065210912504e-5
4.570881896153669e-12 	 3.9129274157289736e-5
4.786300923231686e-12 	 4.0897973370787704e-5
5.011872336278455e-12 	 4.274662032099195e-5
5.248074602503894e-12 	 4.467882876006286e-5
5.495408738582879e-12 	 4.669837578693279e-5
5.754399373378698e-12 	 4.8809209230813407e-5
6.025595860751234e-12 	 5.101545536844881e-5
6.309573444810176e-12 	 5.332142699019979e-5
6.606934480084801e-12 	 5.5731631830725454e-5
6.918309709198843e-12 	 5.825078138074587e-5
7.244359600760055e-12 	 6.0883800097106935e-5
7.585775750302712e-12 	 6.363583502915433e-5
7.943282347254486e-12 	 6.651226588023344e-5
8.317637711039194e-12 	 6.951871552398233e-5
8.709635899574155e-12 	 7.26610609959785e-5
9.120108393573365e-12 	 7.59454449822215e-5
9.549925860229603e-12 	 7.93782878269126e-5
1.000000000001632e-11 	 8.296630008300328e-5
1.0471285480526416e-11 	 8.671649563004502e-5
1.0964781961450441e-11 	 9.063620538498784e-5
1.1481536214988658e-11 	 9.473309163272322e-5
1.2022644346195325e-11 	 9.901516300439031e-5
1.2589254117964267e-11 	 0.00010349079013272056
1.3182567385588149e-11 	 0.00010816872201503034
1.3803842646054499e-11 	 0.0001130581031158403
1.4454397707486593e-11 	 0.00011816849124255962
1.513561248439123e-11 	 0.0001235098762291768
1.584893192464216e-11 	 0.0001290926994644777
1.659586907440862e-11 	 0.0001349278743029717
1.7378008287528875e-11 	 0.00014102680739841626
1.8197008586137265e-11 	 0.00014740142100165023
1.905460717967227e-11 	 0.00015406417626631774
1.9952623149731102e-11 	 0.00016102809760805013
2.0892961308585358e-11 	 0.0001683067981647118
2.18776162395433e-11 	 0.00017591450640748856
2.290867652772858e-11 	 0.00018386609395483567
2.398832919024891e-11 	 0.00019217710464365203
2.511886431515315e-11 	 0.0002008637849145208
2.6302679919014706e-11 	 0.00020994311557039882
2.754228703344641e-11 	 0.00021943284497084908
2.884031503133477e-11 	 0.0002293515237266945
3.019951720409307e-11 	 0.00023971854096292892
3.162277660176114e-11 	 0.0002505541622207544
3.311311214834115e-11 	 0.00026187956907284984
3.4673685045340176e-11 	 0.0002737169005293048
3.630780547710255e-11 	 0.00028608929631516257
3.80189396321541e-11 	 0.0002990209421041644
3.9810717055453584e-11 	 0.0003125371167971347
4.1686938347143615e-11 	 0.00032666424193740593
4.365158322413342e-11 	 0.0003414299333598984
4.5708818961611284e-11 	 0.00035686305517480463
4.786300923239497e-11 	 0.0003729937761914266
5.0118723362866134e-11 	 0.0003898536288924384
5.248074602512438e-11 	 0.00040747557107387604
5.4954087385918474e-11 	 0.000425894050271344
5.7543993733880895e-11 	 0.00044514507109836985
6.025595860761068e-11 	 0.00046526626562856546
6.309573444820447e-11 	 0.00048629696695914643
6.606934480095584e-11 	 0.0005082782860996377
6.918309709210132e-11 	 0.0005312531923360479
7.244359600771878e-11 	 0.0005552665972276386
7.585775750315091e-11 	 0.0005803654424004477
7.943282347267416e-11 	 0.0006065987913092168
8.317637711052769e-11 	 0.0006340179251470891
8.709635899588369e-11 	 0.0006626764430905494
9.120108393588249e-11 	 0.0006926303670756057
9.549925860245188e-11 	 0.0007239382513099777
1.000000000003264e-10 	 0.0007566612967354094
1.0471285480543505e-10 	 0.0007908634706638246
1.0964781961468335e-10 	 0.0008266116318212372
1.1481536215007397e-10 	 0.0008639756610437961
1.2022644346214896e-10 	 0.0009030285978814926
1.258925411798476e-10 	 0.0009438467833765489
1.3182567385609663e-10 	 0.0009865100092955974
1.3803842646077026e-10 	 0.0010311016741073487
1.4454397707510184e-10 	 0.0010777089460107135
1.5135612484415932e-10 	 0.001126422933331992
1.5848931924668027e-10 	 0.0011773388626242606
1.6595869074435705e-10 	 0.0012305562648171448
1.7378008287557239e-10 	 0.001286179169780783
1.8197008586166886e-10 	 0.0013443163096843846
1.905460717970329e-10 	 0.0014050813315468792
1.9952623149763665e-10 	 0.001468593019395167
2.0892961308619457e-10 	 0.0015349755264642108
2.1877616239579007e-10 	 0.0016043586178929611
2.2908676527765873e-10 	 0.0016768779243904292
2.3988329190288064e-10 	 0.0017526752073678644
2.5118864315194146e-10 	 0.0018318986360552425
2.6302679919057635e-10 	 0.001914703077143892
2.7542287033491243e-10 	 0.002001250397521303
2.884031503138172e-10 	 0.0020917097806900297
3.0199517204142357e-10 	 0.002186258057489168
3.162277660181275e-10 	 0.0022850800517648854
3.3113112148395194e-10 	 0.002388368941665837
3.4673685045396764e-10 	 0.0024963266372695606
3.63078054771618e-10 	 0.002609164175278185
3.801893963221614e-10 	 0.002727102131554889
3.981071705551855e-10 	 0.002850371052307694
4.168693834721165e-10 	 0.002979211904763292
4.365158322420448e-10 	 0.003113876548212011
4.5708818961685694e-10 	 0.0032546282263446933
4.786300923247308e-10 	 0.0034017420818439077
5.011872336294793e-10 	 0.0035555056942353563
5.248074602521003e-10 	 0.0037162196420510753
5.495408738600816e-10 	 0.003884198090403087
5.75439937339748e-10 	 0.0040597694051162266
6.025595860770901e-10 	 0.004243276794620779
6.309573444830744e-10 	 0.004435078980859435
6.606934480106339e-10 	 0.004635550900520281
6.918309709221396e-10 	 0.004845084437966505
7.2443596007837e-10 	 0.0050640891912955895
7.585775750327471e-10 	 0.00529299327302539
7.94328234728038e-10 	 0.005532244146972561
8.317637711066309e-10 	 0.005782309502958884
8.709635899602583e-10 	 0.006043678171055703
9.120108393603133e-10 	 0.006316861077153377
9.549925860260773e-10 	 0.006602392241724075
1.0000000000048918e-9 	 0.006900829823729845
1.0471285480560553e-9 	 0.007212757211716939
1.096478196148623e-9 	 0.007538784164229168
1.1481536215026135e-9 	 0.00787954800176943
1.2022644346234518e-9 	 0.008235714852639896
1.2589254118005306e-9 	 0.00860798095509567
1.3182567385631177e-9 	 0.008997074018357826
1.3803842646099556e-9 	 0.009403754645145987
1.4454397707533772e-9 	 0.009828817818511776
1.513561248444057e-9 	 0.010273094455878888
1.5848931924693825e-9 	 0.010737453033328204
1.6595869074462721e-9 	 0.011222801283302854
1.7378008287585598e-9 	 0.01173008796905206
1.8197008586196584e-9 	 0.012260304739282107
1.9054607179734386e-9 	 0.012814488066640706
1.995262314979623e-9 	 0.013393721273823163
2.089296130865355e-9 	 0.013999136651261453
2.187761623961471e-9 	 0.014631917670536348
2.290867652780326e-9 	 0.015293301297838399
2.3988329190327114e-9 	 0.01598458041200093
2.5118864315235034e-9 	 0.01670710633183157
2.6302679919100558e-9 	 0.017462291457682796
2.7542287033536192e-9 	 0.018251612032424962
2.8840315031428786e-9 	 0.01907661102721991
3.019951720419164e-9 	 0.01993890115773509
3.1622776601864356e-9 	 0.02084016803669481
3.3113112148449234e-9 	 0.021782173468932055
3.467368504545335e-9 	 0.02276675889538058
3.6307805477220905e-9 	 0.02379584899274073
3.801893963227803e-9 	 0.024871455435855293
3.9810717055583525e-9 	 0.025995680830150157
4.168693834727968e-9 	 0.027170722821826476
4.365158322427572e-9 	 0.0283988783938404
4.570881896176029e-9 	 0.029682548356066166
4.786300923255119e-9 	 0.03102424203842172
5.011872336302972e-9 	 0.032426582196129566
5.248074602529567e-9 	 0.0338923101367036
5.495408738609762e-9 	 0.03542429107868203
5.754399373406848e-9 	 0.037025519752583086
6.02559586078071e-9 	 0.03869912625503202
6.309573444841041e-9 	 0.040448382167503065
6.6069344801171215e-9 	 0.04227670695163657
6.918309709232686e-9 	 0.04418767463363517
7.244359600795523e-9 	 0.046185020790802805
7.58577575033985e-9 	 0.04827264985388527
7.943282347293343e-9 	 0.05045464273948863
8.317637711079883e-9 	 0.052735264827492
8.709635899616762e-9 	 0.055118974299051805
9.12010839361798e-9 	 0.05761043085149556
9.549925860276359e-9 	 0.0602145048071415
1.0000000000065238e-8 	 0.06293628663384884
1.0471285480577642e-8 	 0.06578109689591279
1.0964781961504102e-8 	 0.06875449665475201
1.1481536215044848e-8 	 0.07186229833972278
1.2022644346254139e-8 	 0.07511057711031047
1.2589254118025853e-8 	 0.07850568273190643
1.3182567385652664e-8 	 0.08205425198838934
1.3803842646122054e-8 	 0.08576322165577048
1.4454397707557333e-8 	 0.0896398420622687
1.513561248446527e-8 	 0.09369169126131872
1.5848931924719692e-8 	 0.09792668984521954
1.659586907448984e-8 	 0.10235311642838268
1.7378008287613923e-8 	 0.10697962383044293
1.819700858622628e-8 	 0.11181525599087162
1.9054607179765483e-8 	 0.11686946564815157
1.995262314982871e-8 	 0.1221521328180792
2.0892961308687606e-8 	 0.12767358410731033
2.187761623965037e-8 	 0.1334446128999054
2.2908676527840647e-8 	 0.13947650045633847
2.398832919036626e-8 	 0.1457810379662073
2.5118864315276083e-8 	 0.15237054959776214
2.630267991914343e-8 	 0.15925791658930158
2.7542287033581086e-8 	 0.1664566024295383
2.8840315031475854e-8 	 0.1739806791761506
3.01995172042408e-8 	 0.18184485496396982
3.16227766019159e-8 	 0.19006450275658085
3.311311214850321e-8 	 0.19865569039753073
3.4673685045509934e-8 	 0.20763521201990062
3.630780547728016e-8 	 0.2170206208756298
3.801893963234008e-8 	 0.22683026364877734
3.9810717055648414e-8 	 0.237083316319789
4.1686938347347626e-8 	 0.24779982165087952
4.365158322434696e-8 	 0.25900072836581317
4.570881896183489e-8 	 0.2707079321006586
4.786300923262921e-8 	 0.2829443182055851
5.011872336311141e-8 	 0.29573380648135217
5.2480746025381214e-8 	 0.30910139793796193
5.49540873861873e-8 	 0.32307322366686236
5.754399373416239e-8 	 0.3376765959222451
6.025595860790557e-8 	 0.35294006151129714
6.309573444851325e-8 	 0.36889345759775777
6.606934480127904e-8 	 0.3855679700278887
6.918309709243976e-8 	 0.4029961942928483
7.244359600807316e-8 	 0.42121219924666475
7.585775750352216e-8 	 0.44025159370434513
7.94328234730629e-8 	 0.4601515960503133
8.317637711093458e-8 	 0.4809511069932587
8.709635899630976e-8 	 0.502690785609594
9.120108393632882e-8 	 0.5254131288242013
9.549925860291925e-8 	 0.5491625544838067
1.0000000000081538e-7 	 0.5739854881854043
1.047128548059473e-7 	 0.5999304540294407
1.0964781961521973e-7 	 0.6270481694751708
1.1481536215063587e-7 	 0.6553916444836259
1.2022644346273735e-7 	 0.6850162851419644
1.2589254118046397e-7 	 0.7159800019718158
1.3182567385674152e-7 	 0.7483433231332922
1.3803842646144554e-7 	 0.782169512746005
1.4454397707580923e-7 	 0.8175246945583484
1.5135612484489943e-7 	 0.8544779812068085
1.5848931924745557e-7 	 0.8931016093179965
1.659586907451689e-7 	 0.9334710807174608
1.7378008287642284e-7 	 0.9756653100213681
1.819700858625594e-7 	 1.0197667788995113
1.905460717979654e-7 	 1.0658616973112522
1.9952623149861272e-7 	 1.1140401720295443
2.0892961308721663e-7 	 1.1643963827824777
2.1877616239686075e-7 	 1.217028766356699
2.2908676527877986e-7 	 1.272040209022534
2.398832919040541e-7 	 1.3295382476570408
2.5118864315317025e-7 	 1.3896352799580698
2.6302679919186305e-7 	 1.4524487841603442
2.754228703362604e-7 	 1.51810154868299
2.884031503152286e-7 	 1.5867219121574658
3.019951720429009e-7 	 1.6584440143051282
3.162277660196744e-7 	 1.7334080581547742
3.3113112148557245e-7 	 1.8117605841128452
3.4673685045566455e-7 	 1.8936547564219428
3.630780547733934e-7 	 1.9792506625677304
3.801893963240213e-7 	 2.0687156262194226
3.98107170557133e-7 	 2.1622245343156283
4.168693834741566e-7 	 2.259960178934984
4.365158322441811e-7 	 2.362113614619769
4.570881896190948e-7 	 2.468884531851125
4.786300923270722e-7 	 2.5804816474058194
5.011872336319311e-7 	 2.6971231123577657
5.248074602546686e-7 	 2.819036938521746
5.495408738627687e-7 	 2.9464614441730026
5.75439937342563e-7 	 3.0796457199140392
6.025595860800377e-7 	 3.2188501155991958
6.309573444861622e-7 	 3.3643467492689965
6.606934480138673e-7 	 3.5164200390889646
6.918309709255253e-7 	 3.675367259332927
7.244359600819139e-7 	 3.8414991214974994
7.58577575036458e-7 	 4.015140381683767
7.943282347319254e-7 	 4.1966304754335715
8.317637711107015e-7 	 4.386324181261184
8.70963589964519e-7 	 4.584592314177694
9.120108393647748e-7 	 4.791822450563556
9.549925860307492e-7 	 5.008419685806539
9.84137481929e-7 	 5.1550662744876625
1.030518452535e-6 	 5.388082421506
1.079085290942e-6 	 5.631631498913
1.129941013928e-6 	 5.886189343646
1.183193493297e-6 	 6.152253567446
1.2389556847e-6 	 6.430344274862
1.297345867219e-6 	 6.721005080045
1.358487894261e-6 	 7.024804168857
1.422511456262e-6 	 7.342335410414
1.489552355781e-6 	 7.674219516447
1.559752795555e-6 	 8.021105257086
1.633261680128e-6 	 8.383670726681
1.7102349317e-6 	 8.762624671331
1.790835820857e-6 	 9.158707872262
1.875235312891e-6 	 9.572694594456
1.963612430441e-6 	 10.00539410317
2.056154633223e-6 	 10.45765224012
2.153058215655e-6 	 10.93035308262
2.254528723228e-6 	 11.42442066869
2.360781388492e-6 	 11.94082080244
2.472041587598e-6 	 12.48056294478
2.588545318342e-6 	 13.04470218528
2.71053970076e-6 	 13.6343413044
2.838283501291e-6 	 14.25063292923
2.972047681664e-6 	 14.89478178658
3.112115973639e-6 	 15.56804705796
3.258785480842e-6 	 16.2717448411
3.412367308964e-6 	 17.00725072192
3.573187225651e-6 	 17.77600246444
3.74158635151e-6 	 18.57950281978
3.917921883664e-6 	 19.41932246525
4.102567853418e-6 	 20.2971030722
4.29591591963e-6 	 21.21456051712
4.498376199471e-6 	 22.17348823453
4.710378138339e-6 	 23.17576071999
4.932371420769e-6 	 24.22333719926
5.164826924278e-6 	 25.31826545462
5.408237718153e-6 	 26.46268582602
5.663120109324e-6 	 27.65883539667
5.930014737514e-6 	 28.90905236298
6.209487722014e-6 	 30.21578060796
6.502131862492e-6 	 31.58157447383
6.808567896407e-6 	 33.00910375622
7.12944581567e-6 	 34.50115892602
7.46544624537e-6 	 36.06065656949
7.817281887467e-6 	 37.69064509968
8.185699032528e-6 	 39.39431071261
8.571479142712e-6 	 41.17498361091
8.975440509357e-6 	 43.03614450819
9.39843998868e-6 	 44.98143143252
9.84137481929e-6 	 47.0146468385
1.030518452535e-5 	 49.13976503181
1.079085290942e-5 	 51.36093993565
1.129941013928e-5 	 53.6825132022
1.183193493297e-5 	 56.10902269847
1.2389556847e-5 	 58.64521137409
1.297345867219e-5 	 61.29603650438
1.358487894261e-5 	 64.06667940085
1.422511456262e-5 	 66.96255550765
1.489552355781e-5 	 69.98932498567
1.559752795555e-5 	 73.1529037609
1.633261680128e-5 	 76.45947507564
1.7102349317e-5 	 79.91550155232
1.790835820857e-5 	 83.52773781284
1.875235312891e-5 	 87.30324365507
1.963612430441e-5 	 91.24939783006
2.056154633223e-5 	 95.373912433
2.153058215655e-5 	 99.68484794216
2.254528723228e-5 	 104.1906289406
2.360781388492e-5 	 108.9000605248
2.472041587598e-5 	 113.8223454984
2.588545318342e-5 	 118.9671022536
2.71053970076e-5 	 124.3443835412
2.838283501291e-5 	 129.9646960254
2.972047681664e-5 	 135.8390207336
3.112115973639e-5 	 141.9788344278
3.258785480842e-5 	 148.3961319049
3.412367308964e-5 	 155.1034493176
3.573187225651e-5 	 162.1138885162
3.74158635151e-5 	 169.4411424965
3.917921883664e-5 	 177.0995219275
4.102567853418e-5 	 185.1039829307
4.29591591963e-5 	 193.4701560458
4.498376199471e-5 	 202.2143764097
4.710378138339e-5 	 211.3537154373
4.932371420769e-5 	 220.9060137006
5.164826924278e-5 	 230.8899153812
5.408237718153e-5 	 241.3249041901
5.663120109324e-5 	 252.2313408185
5.930014737514e-5 	 263.6305020673
6.209487722014e-5 	 275.5446216286
6.502131862492e-5 	 287.996932639
6.808567896407e-5 	 301.011712054
7.12944581567e-5 	 314.6143269097
7.46544624537e-5 	 328.8312825294
7.817281887467e-5 	 343.6902728355
8.185699032528e-5 	 359.2202325894
8.571479142712e-5 	 375.4513919995
8.975440509357e-5 	 392.4153334416
9.39843998868e-5 	 410.1450505396
9.84137481929e-5 	 428.6750096003
0.0001030518452535 	 448.0412134964
0.0001079085290942 	 468.2812680864
0.0001129941013928 	 489.4344511581
0.0001183193493297 	 511.5417840481
0.00012389556847 	 534.6461059037
0.0001297345867219 	 558.7921506801
0.0001358487894261 	 584.026626912
0.0001422511456262 	 610.3983002661
0.0001489552355781 	 637.9580789504
0.0001559752795555 	 666.7591017385
0.0001633261680128 	 696.8568292252
0.00017102349317 	 728.3091374172
0.0001790835820857 	 761.1764143357
0.0001875235312891 	 795.5216592398
0.0001963612430441 	 831.4105844141
0.0002056154633223 	 868.9117195649
0.0002153058215655 	 908.0965184203
0.0002254528723228 	 949.0394677245
0.0002360781388492 	 991.8181980495
0.0002472041587598 	 1036.513596511
0.0002588545318342 	 1083.209920989
0.000271053970076 	 1131.994915551
0.0002838283501291 	 1182.959926775
0.0002972047681664 	 1236.200020711
0.0003112115973639 	 1291.814099796
0.0003258785480842 	 1349.905019553
0.0003412367308964 	 1410.579704814
0.0003573187225651 	 1473.949264257
0.000374158635151 	 1540.129103489
0.0003917921883664 	 1609.239035637
0.0004102567853418 	 1681.403389323
0.000429591591963 	 1756.751112804
0.0004498376199471 	 1835.415874383
0.0004710378138339 	 1917.536157553
0.0004932371420769 	 2003.255350704
0.0005164826924278 	 2092.721830161
0.0005408237718153 	 2186.08903536
0.0005663120109324 	 2283.515534943
0.0005930014737514 	 2385.165081646
0.0006209487722014 	 2491.206654389
0.0006502131862492 	 2601.81448375
0.0006808567896407 	 2717.168058638
0.000712944581567 	 2837.452108739
0.0007465446245371 	 2962.856557607
0.0007817281887467 	 3093.576442502
0.0008185699032528 	 3229.811793178
0.0008571479142712 	 3371.767461059
0.0008975440509357 	 3519.652897191
0.000939843998868 	 3673.681868
0.000984137481929 	 3834.072108344
0.001030518452535 	 4001.044907055
0.001079085290942 	 4174.824623938
0.001129941013928 	 4355.63814097
0.001183193493297 	 4543.714247858
0.0012389556847 	 4739.282962862
0.001297345867219 	 4942.574785068
0.001358487894261 	 5153.819870308
0.001422511456262 	 5373.247113082
0.001489552355781 	 5601.083113277
0.001559752795555 	 5837.551002787
0.001633261680128 	 6082.869113847
0.0017102349317 	 6337.249483055
0.001790835820857 	 6600.896202271
0.001875235312891 	 6874.003643785
0.001963612430441 	 7156.754587795
0.002056154633223 	 7449.318257286
0.002153058215655 	 7751.848243793
0.002254528723228 	 8064.478385797
0.002360781388492 	 8387.324312793
0.002472041587598 	 8720.479972474
0.002588545318342 	 9064.012125478
0.00271053970076 	 9417.958951961
0.002838283501291 	 9782.327053032
0.002972047681664 	 10157.08821264
0.003112115973639 	 10542.17581209
0.003258785480842 	 10937.48091516
0.003412367308964 	 11342.84813588
0.003573187225651 	 11758.07133113
0.00374158635151 	 12182.88903525
0.003917921883664 	 12616.97968277
0.004102567853418 	 13059.95689162
0.00429591591963 	 13511.36497049
0.004498376199471 	 13970.67447649
0.004710378138339 	 14437.27771875
