###############
#    GaPSE    #
############### 
#
# Power Spectrum Multipole computation of the file: "../test/datatest/Power_Spectrum/xi_LD_auto_doppler_withF_L2.txt"
#
# For this PS_multipole computation we set: 
# 	 #points used in Fourier transform N = 300
# 	 multipole degree in consideration L = 2
# computational time needed (in s) : 0.0099
# kwards passed to "print_PS_multipole": 
# 		ν = 1.5
# 		n_extrap_high = 500
# 		twofast = false
# 		n_pad = 500
# 		n_extrap_low = 500
# 
# k [h_0/Mpc] 	 	  P [(Mpc/h_0)^3]
0.003 	 -30.97417237084663
0.0030630064423751956 	 -31.745480569764414
0.0031273361553439847 	 -32.51047693040406
0.003193016930430501 	 -33.26645699932444
0.0032600771428405654 	 -34.01049795906073
0.0033285457637202576 	 -34.73944894048478
0.0033984523726719386 	 -35.449925520813146
0.0034698271705331392 	 -36.13830364236438
0.0035427009924238343 	 -36.80071525538803
0.003617105321067735 	 -37.433044543820955
0.0036930723003933577 	 -38.03092806982917
0.0037706347494207465 	 -38.58975291702024
0.003849826176439843 	 -39.10466192935423
0.003930680793486636 	 -39.57055690517398
0.004013233531123338 	 -39.982107793146824
0.004097520053528979 	 -40.333763556076185
0.004183576773906941 	 -40.61976705838618
0.0042714408702160655 	 -40.83417309195754
0.004361150301232175 	 -40.97087260852733
0.004452743822946892 	 -41.0236179955131
0.004546261005310896 	 -40.98605770865018
0.004641742249328804 	 -40.851771920503026
0.004739228804513085 	 -40.61431666873568
0.00483876278670456 	 -40.26727232985176
0.0049403871962671415 	 -39.80429855920147
0.005044145936664728 	 -39.219194692478396
0.005150083833428243 	 -38.50596805483119
0.005258246653521018 	 -37.658905179843984
0.0053686811251108975 	 -36.672653023045115
0.005481434957757598 	 -35.54230186710141
0.0055965568630240445 	 -34.2634761883063
0.005714096575520589 	 -32.83242861838838
0.005834104874391202 	 -31.246138056165236
0.005956633605250929 	 -29.5024098228724
0.006081735702584062 	 -27.599978720252377
0.006209465212612739 	 -25.538609012589664
0.006339877316645828 	 -23.319196215993596
0.006473028354918181 	 -20.943861257772696
0.006608975850930569 	 -18.41604110614103
0.006747778536300808 	 -15.740569332491335
0.0068894963761368146 	 -12.923745787622737
0.007034190594942543 	 -9.973391555350425
0.007181923703068007 	 -6.898888153163256
0.00733275952371481 	 -3.711193933198716
0.007486763220508845 	 -0.4228408606812145
0.007644001325652087 	 2.952098096907329
0.007804541768665627 	 6.3980674982822086
0.007968453905736373 	 9.898119994290264
0.008135808549680101 	 13.43403875122492
0.008306678000533783 	 16.9864936814573
0.00848113607679043 	 20.535229910587542
0.008659258147289926 	 24.059291384704807
0.008841121163779648 	 27.537271995202495
0.009026803694158909 	 30.947597618184183
0.009216385956421652 	 34.268828795773814
0.009409949853311934 	 37.47998205052668
0.00960757900770733 	 40.560860765940085
0.009809358798745412 	 43.4923880679389
0.010015376398709003 	 46.256930494992574
0.010225720810686057 	 48.83860539098671
0.010440482907020501 	 51.223555665168384
0.010659755468570635 	 53.4001870678467
0.010883633224792027 	 55.359351742724996
0.011112212894662235 	 57.094472288210255
0.01134559322846505 	 58.601596612982036
0.011583875050452282 	 59.879379093595155
0.011827161302401546 	 60.92898421482272
0.01207555708808885 	 61.75391718945697
0.012329169718695202 	 62.35978190150933
0.012588108759166862 	 62.75398188278249
0.012852486075549244 	 62.94537280848731
0.013122415883314946 	 62.94388814974388
0.013398014796706758 	 62.760156989508104
0.013679401879116999 	 62.40513782732375
0.013966698694524911 	 61.88979029096753
0.014260029360014345 	 61.224809632512816
0.01455952059939446 	 60.420437617442914
0.014865301797946536 	 59.486368578530836
0.015177505058320608 	 58.43175077898228
0.015496265257606048 	 57.265283719383795
0.01582172010560075 	 55.99539661756202
0.016154010204304087 	 54.6304869521002
0.01649327910865936 	 53.17918764029925
0.01683967338857195 	 51.65063003810069
0.017193342692230006 	 50.05466049737675
0.017554439810755003 	 48.4019811117641
0.01792312074421006 	 46.70418140751802
0.018299544768994643 	 44.97364906541562
0.018683874506654638 	 43.223357115943635
0.019076275994137616 	 41.4665454940017
0.0194769187555236 	 39.716329078117525
0.01988597587526236 	 37.98528128600224
0.020303624072948775 	 36.285041519723976
0.02073004377966874 	 34.6260028413414
0.021165419215948403 	 33.017113061248054
0.021609938471340573 	 31.465811331682676
0.02206379358568259 	 29.97808896459509
0.022527180632060762 	 28.558638700280962
0.02300029980151729 	 27.21103153022378
0.02348335548953613 	 25.937853167722036
0.023976556384345364 	 24.740731299239307
0.024480115557073995 	 23.62022039027987
0.024994250553802298 	 22.575541133333097
0.02551918348954542 	 21.604232486442932
0.02605514114421078 	 20.7018139482289
0.026602355060570886 	 19.861587944592692
0.02716106164429367 	 19.074706509515657
0.027731502266073783 	 18.33058898248116
0.02831392336590878 	 17.617694650471854
0.028908576559565396 	 16.92457043818892
0.029515718747281795 	 16.240994666278738
0.030135612224752827 	 15.558998997714754
0.03076852479644621 	 14.873552968016273
0.031414729891298565 	 14.182777009556302
0.03207450668084138 	 13.487673383575448
0.032748140199807804 	 12.791503842907971
0.03343592146927248 	 12.099029368963127
0.03413814762237758 	 11.415847297448378
0.03485512203269933 	 10.747961262108998
0.03558715444531056 	 10.101580938110365
0.036334561110595784 	 9.482994469791477
0.03709766492087671 	 8.898302775093343
0.03787679554990722 	 8.352874724441834
0.038672289595298 	 7.8505699099139905
0.039484490723932335 	 7.392969320069016
0.04031374982043614 	 6.97895704858974
0.04116042513876593 	 6.604881659559091
0.04202488245698067 	 6.265276711333608
0.04290749523526404 	 5.953831037767379
0.0438086447772656 	 5.664206229821847
0.044728720394830335 	 5.390467621953552
0.045668119576188014 	 5.127242931653189
0.046627248157674904 	 4.869962188101195
0.047606520499061736 	 4.615448045884381
0.04860635966256431 	 4.36268556682052
0.049627197595613445 	 4.1132100584887095
0.0506694753174636 	 3.870581894871646
0.051733643109720666 	 3.639033061750824
0.052820160710871186 	 3.4220720746947215
0.053929497514897215 	 3.221924134240288
0.055062132774062425 	 3.0398823799605443
0.056218555805957214 	 2.8766584119697836
0.05739926620489214 	 2.7317440080377895
0.05860477405773116 	 2.602062127910268
0.05983560016425776 	 2.481523911584422
0.06109227626216929 	 2.3628418880120763
0.0623753452567966 	 2.240814296729016
0.06368536145564836 	 2.1145072276723726
0.0650228908078813 	 1.9866361641416568
0.06638851114879978 	 1.861282606922105
0.06778281244949041 	 1.7423369965227196
0.0692063970716996 	 1.6331188872578921
0.07065988002806392 	 1.5354584665227842
0.07214388924780607 	 1.447979495570213
0.07365906584801087 	 1.3661756562982603
0.07520606441059868 	 1.285587912868284
0.07678555326511591 	 1.204724723712319
0.0783982147774646 	 1.1241876764353527
0.08004474564469612 	 1.044319020229862
0.08172585719599604 	 0.9657242106585564
0.08344227569999038 	 0.8909562561108528
0.08519474267850594 	 0.8232225038863855
0.08698401522692024 	 0.7641140703132754
0.08881086634123961 	 0.7137243682292834
0.09067608525204644 	 0.6699675157191398
0.09258047776546026 	 0.6267523998083702
0.09452486661125946 	 0.5785817313546636
0.09651009179831457 	 0.5282098205976795
0.09853701097748636 	 0.48344369400583576
0.10060649981214538 	 0.4478833880122646
0.10271945235647342 	 0.4199116806474734
0.10487678144171003 	 0.3957692546642465
0.10707941907051106 	 0.3720108634397869
0.10932831681958961 	 0.3491265115076542
0.11162444625081315 	 0.3271784475752279
0.11396879933093482 	 0.30308704896469313
0.11636238886013975 	 0.2814541524204449
0.11880624890959193 	 0.2668048205693735
0.12130143526817039 	 0.2518546319446424
0.1238490258985879 	 0.23573895890878432
0.1264501214030891 	 0.22297368078109475
0.12910584549892917 	 0.2111788660740386
0.13181734550383883 	 0.1974515907841072
0.13458579283168515 	 0.17998986991398067
0.13741238349854168 	 0.16436264645396326
0.1402983386393881 	 0.1553814938554766
0.14324490503566084 	 0.14330181552162286
0.14625335565388412 	 0.12955977629766965
0.14932499019561263 	 0.12211784428622183
0.1524611356589248 	 0.11092463459683251
0.15566314691170843 	 0.09645215454170251
0.15893240727698651 	 0.09155315363495446
0.16227032913053607 	 0.0907161111579717
0.16567835451105847 	 0.0817986839540326
0.16915795574316456 	 0.07284148883758264
0.17271063607344378 	 0.06808158406798234
0.17633793031989203 	 0.06367259571743586
0.18004140553497924 	 0.062206273349150326
0.18382266168264225 	 0.056788440847361524
0.1876833323294964 	 0.05090855983201725
0.19162508535056413 	 0.049093250938456144
0.19564962364982488 	 0.04657439033811158
0.1997586858958987 	 0.04267244964283691
0.2039540472731803 	 0.03785636414585582
0.20823752024874886 	 0.03537103311652376
0.21261095535538432 	 0.032964055684712494
0.21707624199102915 	 0.029440323392646316
0.22163530923503977 	 0.026496609128562144
0.22629012668158185 	 0.025201734450835154
0.23104270529052814 	 0.023590507366441384
0.23589509825622715 	 0.020916485520556555
0.24084940189451784 	 0.01992753844882955
0.24590775654837363 	 0.019112220219595716
0.2510723475125666 	 0.0167723665465909
0.2563454059777518 	 0.015759233974303778
0.2617292099943796 	 0.015664412502291017
0.2672260854568517 	 0.01318117988554443
0.27283840710834717 	 0.012285129543085258
0.2785685995667513 	 0.012349411283066217
0.2844191383721318 	 0.009719181762499736
0.290392551056214 	 0.009366247115765138
0.2964914182343172 	 0.009409118812984398
0.30271837472022395 	 0.007180339527983073
0.30907611066446483 	 0.007972857570999583
0.31556737271650825 	 0.006957633540354891
0.3221949652113598 	 0.005751394730830405
0.32896175138108247 	 0.006514693844253793
0.335870654591761 	 0.005015472048141379
0.342924659606446 	 0.005233046919556735
0.35012681387462175 	 0.004664898638973369
0.3574802288487559 	 0.003949933320635121
0.3649880813284995 	 0.004098749096344301
0.37265361483311865 	 0.003380337353267428
0.38048014100274913 	 0.003430438029152639
0.3884710410290812 	 0.002953219522424406
0.39662976711609155 	 0.0027600214305573646
0.404959843971454 	 0.0026173794234465647
0.4134648703292726 	 0.0023285220147436577
0.4221485205047956 	 0.002229616438855517
0.43101454598178224 	 0.0019464153111685176
0.4400667770332063 	 0.0018547317557438825
0.44930912437599996 	 0.0017173363342973245
0.4587455808605487 	 0.0015616087819229616
0.4683802231956707 	 0.0014113628115281628
0.4782172137098238 	 0.0013429440869556783
0.48826080214930206 	 0.001231906914164423
0.4985153275141977 	 0.0010853409147742045
0.5089852199329227 	 0.00101624106991222
0.5196750025760993 	 0.0009394902160344236
0.5305892936106462 	 0.0008404309561979023
0.5417328081949045 	 0.0007815749431809424
0.5531103605156664 	 0.0007507618537719198
0.5647268658679844 	 0.0006614561109380149
0.5765873427786632 	 0.0005860339088601462
0.5886969151743469 	 0.0005491046625278584
0.6010608145951429 	 0.000474698334364214
0.6136843824547352 	 0.00044542728098071935
0.6265730723479659 	 0.0004362772329702195
0.6397324524068798 	 0.00037212263581579754
0.6531682077062521 	 0.0003567814777571722
0.6668861427196368 	 0.00032038325365262607
0.6808921838269971 	 0.00028523783011488035
0.6951923818750029 	 0.0002815789363566749
0.709792914791097 	 0.00024305424333100455
0.7247000902524662 	 0.0002346964138899753
0.7399203484110632 	 0.00021166715708707722
0.7554602646758622 	 0.00019467069100475998
0.7713265525535454 	 0.00018497040109619517
0.7875260665488534 	 0.0001620441391707511
0.8040658051258449 	 0.00015210768671816534
0.820952913731354 	 0.00013658736243625147
0.8381946878819418 	 0.00013244862594704757
0.8557985763156849 	 0.00011937506402402338
0.8737721842101546 	 0.00010306612439438301
0.8921232764679831 	 9.391562338948238e-5
0.9108597810714333 	 8.984180869038779e-5
0.9299897925074203 	 8.4760067262616e-5
0.9495215752644668 	 7.604232577186283e-5
0.969463567403102 	 7.173134193169752e-5
0.9898243842012472 	 6.766208297278259e-5
1.0106128218761603 	 6.384192193200178e-5
1.0318378613845518 	 6.0218226914773774e-5
1.0535086723025089 	 5.724891207617843e-5
1.075634616786908 	 5.315144701630696e-5
1.0982252536200245 	 4.907057588536773e-5
1.1212903423390896 	 4.775066476438231e-5
1.1448398474525734 	 4.4477585302590447e-5
1.168883942745023 	 3.858116706624338e-5
1.1934330156723083 	 3.7149593993698005e-5
1.2184976718491793 	 3.573726197853642e-5
1.2440887396310716 	 3.2609452245140404e-5
1.2702172747921365 	 3.121156204713121e-5
1.2968945653015262 	 2.948247266404039e-5
1.3241321361999845 	 2.8106499270083045e-5
1.351941754578861 	 2.6233875561125187e-5
1.3803354346636922 	 2.3882366058872097e-5
1.409325443004552 	 2.285984061410996e-5
1.4389243037754067 	 2.019833675434344e-5
1.4691448041847714 	 1.7524329646812794e-5
1.5 	 1.650866175842691e-5
