###############
#    GaPSE    #
############### 
#
# Power Spectrum Multipole computation from two input vectors.
#
# For this PS_multipole computation we set: 
# 	 multipole degree in consideration L = 2
# 	 algorithm chosen for the computation: :fftlog
# 	 #points used in Fourier transform N = 100
# computational time needed (in s) : 0.0008
# kwards passed to "print_PS_multipole": 
# 		ν = 1.5
# 		cut_first_n = 0
# 		cut_last_n = 0
# 		n_extrap_high = 500
# 		n_pad = 500
# 		n_extrap_low = 500
# 
# k [h_0/Mpc] 	 	  P [(Mpc/h_0)^3]
0.0026237434274957883 	 -51.53362415489992
0.0028171649190466483 	 -51.32598134413126
0.003024845378529242 	 -50.658587290662275
0.003247835972310078 	 -49.446351089356895
0.003487265358390079 	 -47.59393583375767
0.0037443453990620573 	 -44.99197287893786
0.004020377294703403 	 -41.531868315107275
0.004316758169749918 	 -37.087749240881394
0.004634988144185454 	 -31.54297345855333
0.004976677926339407 	 -24.781078963413094
0.0053435569654227185 	 -16.703322544833046
0.00573748220506611 	 -7.2437758390658225
0.00616044748216624 	 3.6138748905856164
0.006614593618611684 	 15.81562411126362
0.007102219256967561 	 29.198285918197584
0.0076257924949632615 	 43.48099130588225
0.0081879633776707 	 58.21906323135499
0.00879157731060181 	 72.80622107901254
0.00943968946161511 	 86.47229524234015
0.010135580224526021 	 98.31535261275286
0.010882771822689393 	 107.3757769711763
0.011685046136592608 	 112.74748212109931
0.012546463845692895 	 113.70945337652044
0.013471384981384527 	 109.9101696530356
0.01446449099512391 	 101.49339501516994
0.015530808453409494 	 89.22692474013894
0.016675734479547767 	 74.50819108097838
0.01790506407097765 	 59.22807710390383
0.01922501943041905 	 45.455113538470016
0.020642281459303878 	 34.921016819330305
0.022164023572892322 	 28.436640381223153
0.02379794800822819 	 25.549990798222694
0.025552324808704695 	 24.58126994614256
0.027436033682559372 	 23.354527277504573
0.02945860894716336 	 20.308723414388833
0.03163028778658869 	 15.506066184946324
0.03396206206670731 	 10.674855309383405
0.03646573397008207 	 7.781186792577421
0.03915397573224325 	 7.15196554799557
0.042040393781703544 	 7.101573626773055
0.045139597608353496 	 5.7515612147346244
0.048467273708812215 	 3.753259815876486
0.052040264983004667 	 2.905101570928763
0.055876655983828204 	 3.167117859679875
0.05999586445139613 	 2.6063341006893013
0.06441873959515516 	 1.5810818570587934
0.06916766762132794 	 1.7196233323617878
0.07426668503980334 	 1.3569397787376287
0.07974160032397312 	 0.8644624869263552
0.08562012453929112 	 0.8644889396953203
0.09193201160172634 	 0.5354625317471952
0.09870920887602247 	 0.4492464319384457
0.10598601887601106 	 0.35635160403979577
0.11379927288541766 	 0.2629124952794183
0.1221885173779362 	 0.2418056428892001
0.1311962141801292 	 0.17212775313943018
0.14086795539026983 	 0.14543881922195565
0.1512526941409302 	 0.09984511084431875
0.16240299237331013 	 0.07747638420702464
0.1743752868774072 	 0.060195791612549905
0.18723017494457944 	 0.0476687324602943
0.20103272107831996 	 0.037631293688307234
0.21585278631564728 	 0.0268654150317855
0.23176538182595982 	 0.020673509058594018
0.2488510485770788 	 0.015958115890192054
0.2671962649901465 	 0.012270900592592983
0.2868938846467072 	 0.008986000804895464
0.3080436062634089 	 0.006914831803943655
0.33075247831308263 	 0.005197161058056725
0.35513544084632087 	 0.003908372938051026
0.381315907255961 	 0.002919185075580619
0.40942638892905353 	 0.0022081260617040676
0.43960916594796506 	 0.001636447135890206
0.47201700723534323 	 0.0012319117924509476
0.5068139437879283 	 0.0009127423394176049
0.5441760989129047 	 0.0006849036631155723
0.5842925796689985 	 0.0005039775511099722
0.6273664340243168 	 0.0003793029383146443
0.6736156785755439 	 0.0002771794542282289
0.7232744020302541 	 0.0002078933438206207
0.7765939500375726 	 0.0001524896860391496
0.8338441973641595 	 0.0001130730605290275
0.8953149138545831 	 8.325909903212175e-5
0.9613172310898347 	 6.165440681402884e-5
1.032185217167424 	 4.4860910974900604e-5
1.1082775675737375 	 3.364537357422977e-5
1.189979420706942 	 2.407566238470846e-5
1.2777043072396344 	 1.7778250937244045e-5
1.3718962431878552 	 1.2536444234040551e-5
1.4730319772804534 	 9.093336017908065e-6
1.581623404003772 	 6.494514965580093e-6
1.698220154535184 	 4.717222195912005e-6
1.823412378679385 	 3.2968700004764325e-6
1.9578337318881047 	 2.483829998172499e-6
2.1021645824819144 	 1.6753170513884552e-6
2.2571354553073575 	 1.2818222769025738e-6
2.4235307292593413 	 8.799958996021197e-7
2.6021926073836408 	 6.467334767564171e-7
2.7940253796540437 	 4.6063886604035137e-7
3.0 	 3.399288622504553e-7
