###############
#    GaPSE    #
############### 
#
# Power Spectrum Multipole computation of the file: "../test/datatest/Power_Spectrum/xi_LD_auto_doppler_withF_L0.txt"
#
# For this PS_multipole computation we set: 
# 	 #points used in Fourier transform N = 300
# 	 multipole degree in consideration L = 0
# computational time needed (in s) : 0.0101
# kwards passed to "print_PS_multipole": 
# 		ν = 1.5
# 		n_extrap_high = 500
# 		twofast = false
# 		n_pad = 500
# 		n_extrap_low = 500
# 
# k [h_0/Mpc] 	 	  P [(Mpc/h_0)^3]
0.001 	 384.81843905378054
0.0010233717986325203 	 384.3261582633228
0.0010472898382363584 	 383.81142821605414
0.0010717668854455034 	 383.2732667302878
0.001096816005273138 	 382.71065173412416
0.001122450568085307 	 382.1225212903827
0.0011486842567375536 	 381.5077722077007
0.0011755310738783698 	 380.86525845161526
0.0012030053494233243 	 380.19379049717435
0.001231121748203891 	 379.49213436050854
0.001259895277795027 	 378.7590095234967
0.0012893412965257157 	 377.99308955198296
0.0013194755216767058 	 377.19299945174487
0.0013503140378698735 	 376.35731584687716
0.0013818733056536322 	 375.48456590369904
0.001414170170289024 	 374.57322618727807
0.0014472218707411344 	 373.621722470068
0.0014810460488806755 	 372.6284292581688
0.001515660758900603 	 371.5916685452566
0.0015510844769528406 	 370.50971100124707
0.0015873361110102088 	 369.3807743941076
0.001624435010958867 	 368.2030247085822
0.0016624009789266117 	 366.9745762335597
0.0017012542798525892 	 365.69349178644757
0.0017410156523040153 	 364.35778399282106
0.001781706319545731 	 362.9654164261051
0.0018233480008684405 	 361.5143043653533
0.001865962923181746 	 360.0023178876019
0.0019095738328780967 	 358.4272827389047
0.0019542040079740535 	 356.7869839244131
0.001999877270535285 	 355.07916859501
0.00204661799939199 	 353.30154938811785
0.0020944511431514688 	 351.4518090572706
0.0021434022335148567 	 349.5276052395346
0.00219349739890506 	 347.52657532708264
0.002244763378413224 	 345.44634374986583
0.002297227536071154 	 343.28452766243555
0.0023509178754572866 	 341.038745529787
0.002405863054644067 	 338.7066254484927
0.0024620924014946252 	 336.2858143481302
0.0025196359293170162 	 333.7739888268646
0.002578524352884274 	 331.16886650158574
0.0026387891048289345 	 328.4682179987195
0.002700462352420682 	 325.66988152889866
0.0027635770147361603 	 322.7717764811012
0.0028281667802300325 	 319.77192012542207
0.002894266124716752 	 316.66844444469626
0.0029619103297725533 	 313.459614190483
0.0030311355015675795 	 310.1438467977684
0.0031019785901380964 	 306.7197330097888
0.0031744774091091933 	 303.1860584085198
0.0032486706558783746 	 299.54182740912313
0.0033245979322709418 	 295.7862864423685
0.003402299765678068 	 291.9189499748431
0.0034818176306889662 	 287.9396264295375
0.0035631939712285838 	 283.84844494275626
0.0036464722232127486 	 279.64588335397775
0.0037316968377327517 	 275.33279610788475
0.003818913304781854 	 270.91044216688545
0.003908168177536264 	 266.38051399311456
0.003999509097203665 	 261.74516438663005
0.004092984818452438 	 257.0070342720962
0.0041886452354352715 	 252.1692783286207
0.004286541408420925 	 247.23558906968563
0.0043867255910484985 	 242.21021936649043
0.004489251258218603 	 237.09800175005586
0.0045941731346364765 	 231.904364330317
0.0047015472240221345 	 226.63534379781643
0.0048114308390032594 	 221.29759220696548
0.004923882631706742 	 215.89838006465155
0.00503896262506515 	 210.44559240805287
0.005156732244854969 	 204.94771821016602
0.0052772543524835375 	 199.41383283608755
0.0054005932785423745 	 193.8535717479111
0.005526814857144603 	 188.27709534703936
0.005655986461065007 	 182.6950452883736
0.005788177037701274 	 177.1184893996183
0.005923457145875806 	 171.55885791698572
0.006061898993497572 	 166.02786834426303
0.0062035764761042755 	 160.53744004680237
0.006348565216305216 	 155.09959923763557
0.006496942604146124 	 149.72637377178268
0.006648787838417263 	 144.42967921113055
0.0068041819689271 	 139.22119805016305
0.006963207939763884 	 134.11225141229102
0.007125950633568411 	 129.1136680145548
0.007292496916841444 	 124.235650175337
0.007462935686310138 	 119.48764059637125
0.00763735791637802 	 114.87819321988964
0.00781585670768409 	 110.41485026111407
0.007998527336796709 	 106.10402959497398
0.008185467307069028 	 101.95092663096784
0.008376776400682916 	 97.95943220307952
0.008572556731909325 	 94.13207273921398
0.008772912801613356 	 90.46997338329305
0.008977951553033322 	 86.97284791516752
0.00918778242886333 	 83.63901780747298
0.009402517429670132 	 80.46546043739943
0.009622271173675135 	 77.44788746328052
0.009847160957933775 	 74.58085277484052
0.010077306820944612 	 71.85788582518863
0.010312831606721848 	 69.27164953102557
0.010553861030365234 	 66.81411535290802
0.010800523745162528 	 64.47675075282618
0.011052951411260215 	 62.25071232437594
0.011311278765939214 	 60.12703578143881
0.011575643695533043 	 58.09681599957244
0.011846187309026835 	 56.15136991195048
0.012123054013376522 	 54.28237389495776
0.012406391590588317 	 52.481973370284585
0.012696351276599734 	 50.74285901978276
0.01299308784200416 	 49.05831043903279
0.01329675967466212 	 47.422209708254755
0.01360752886424333 	 45.82902858760822
0.013925561288744627 	 44.2737979521946
0.014251026703029976 	 42.75206887450128
0.014584098829439856 	 41.259873819908556
0.0149249554505183 	 39.79370065090347
0.01527377850390714 	 38.35048480174434
0.015630754179458167 	 36.92762607636796
0.015996073018614877 	 35.52303090126635
0.01636993001611703 	 34.135174179624656
0.016752524724082153 	 32.76317252404645
0.01714406135851971 	 31.406854857162667
0.017544748908334597 	 30.066812166743837
0.017954801246878312 	 28.74441276532268
0.018374437246107267 	 27.441766418320885
0.018803880893409154 	 26.161631460281697
0.0192433614111598 	 24.907266044927965
0.01969311337907423 	 23.68223272968532
0.020153376859417333 	 22.49017794784493
0.020624397525140916 	 21.334612261651174
0.021106426791015546 	 20.218717477066807
0.02159972194782718 	 19.145206943556516
0.022104546299710218 	 18.116248163776454
0.022621169304690252 	 17.1334472369707
0.02314986671851161 	 16.197876910728947
0.023690920741826334 	 15.310116000265722
0.024244620170823284 	 14.470268083554922
0.024811260551377688 	 13.677932468732907
0.025391144336803468 	 12.932118845204473
0.025984581049292486 	 12.23112908546374
0.02659188744512694 	 11.572448526828694
0.02721338768375307 	 10.952711044245888
0.02784941350080644 	 10.367795543957753
0.028500304385181068 	 9.81308153538787
0.02916640776023704 	 9.283849690399077
0.029848079169243258 	 8.775758020252104
0.03054568246515432 	 8.28528727695726
0.03125959000482279 	 7.810051384640069
0.03199018284775065 	 7.348896631895077
0.032737850959485774 	 6.901788560103063
0.033502993419772316 	 6.469552490685666
0.034286018635565865 	 6.053570804829771
0.03508734455902713 	 5.655532595411775
0.03590739891061055 	 5.27726243900936
0.0367466194073669 	 4.920578978583821
0.03760545399658172 	 4.587103234719106
0.03848436109487431 	 4.277962818754805
0.03938380983288489 	 3.993449651759748
0.04030428030568053 	 3.732781876607962
0.04124626382901352 	 3.4941290552575768
0.04221026320156901 	 3.274955406708872
0.04319679297334173 	 3.0725428335754925
0.04420637972028532 	 2.884432997728802
0.04523956232538054 	 2.7085853501118358
0.046296892266272656 	 2.5432466152901876
0.04737893390963144 	 2.3867639519912234
0.0484862648123908 	 2.237601537153772
0.04961947603002903 	 2.0946210336639304
0.050779172432054015 	 1.9574459654005516
0.05196597302486197 	 1.826636434148635
0.053180511282142 	 1.7035511974292712
0.054423435483002665 	 1.5899491348904051
0.055695409058001334 	 1.4873595581213088
0.05699711094326075 	 1.3962506850560146
0.05832923594286203 	 1.31525449427368
0.05969249509970734 	 1.2411100910681758
0.061087616075050366 	 1.1699064685602074
0.06251534353689712 	 1.099136024238527
0.06397643955748428 	 1.0289605065000222
0.06547168402004735 	 0.9614287676804653
0.06700187503509587 	 0.8982710553882778
0.06856782936641741 	 0.8394422700476534
0.0701703828670383 	 0.7837147270816011
0.07181039092537353 	 0.7303644211456884
0.07348872892180387 	 0.679974764300967
0.0752062926959241 	 0.6333678207449324
0.07696399902471159 	 0.5897770969837681
0.07876278611187058 	 0.5467691049867522
0.08060361408861344 	 0.5030079873984232
0.08248746552614585 	 0.46075221778669784
0.08441534596012984 	 0.4234548225162646
0.0863882844274045 	 0.39090344654816
0.08840733401525062 	 0.3599512224748609
0.09047357242349298 	 0.3298741655022191
0.09258810253973954 	 0.30259643966413563
0.09475205302806543 	 0.27786802205153777
0.0969665789314552 	 0.2538401960474969
0.09923286228832551 	 0.23197038942466364
0.10155211276345681 	 0.2145873930900515
0.10392556829367125 	 0.19950274747091934
0.10635449574860112 	 0.18421168135617613
0.10884019160690062 	 0.17072511997570694
0.11138398264826194 	 0.15875568627064648
0.1139872266616052 	 0.14532792255999516
0.11665131316981961 	 0.13553583945743086
0.11937766417144365 	 0.13009399238379188
0.1221677348996792 	 0.12046530175242237
0.12502301459914558 	 0.1104455128672736
0.12794502732078736 	 0.10225550409954455
0.13093533273536107 	 0.09324623929874096
0.13399552696593386 	 0.0875188984558324
0.13712724343984006 	 0.08071545898222286
0.1403321537605485 	 0.07263386162847418
0.14361196859990782 	 0.0677218379048193
0.14696843861124462 	 0.0617435396391137
0.15040335536380248 	 0.05542720488396478
0.15391855229902057 	 0.050810323696280746
0.15751590570916224 	 0.04633335201194591
0.16119733573881576 	 0.04184223072860868
0.16496480740980204 	 0.03783308744536511
0.16882033167003632 	 0.035577321967881305
0.1727659664669036 	 0.033352392739529724
0.17680381784572075 	 0.030108851607349836
0.18093604107387165 	 0.026933949882773915
0.1851648417912155 	 0.025649952053379024
0.18949247718738216 	 0.025223109894299132
0.193921257206583 	 0.021814172873519506
0.1984535457805803 	 0.019452422937804473
0.20309176209047358 	 0.018840016377744507
0.20783838185797573 	 0.016847444891848095
0.2126959386668691 	 0.015003659294389229
0.2176670253153459 	 0.013758707179726156
0.22275429519995577 	 0.012909137436899537
0.227960463731898 	 0.011216722775207917
0.23328830978641574 	 0.010456023968986615
0.23874067718606473 	 0.0102935550168488
0.24432047621864877 	 0.008615374382141432
0.2500306851906324 	 0.008045141210924978
0.25587435201685876 	 0.007729694914607123
0.2618545958474233 	 0.006886503253012538
0.2679746087325691 	 0.006375413260540178
0.274237657326495 	 0.0056612313091874665
0.2806470846309838 	 0.0050841244026348115
0.2872063117797829 	 0.004806500931954584
0.29391883986468864 	 0.004333072249663194
0.30078825180430996 	 0.003865737019178888
0.3078182142565079 	 0.0037011260901384044
0.31501247957553286 	 0.003245433241137549
0.322374887814903 	 0.0029896253345469536
0.329909368777094 	 0.0028461778794388846
0.33761994411113394 	 0.0024600909010698657
0.3455107294592219 	 0.0021824415314278824
0.3535859366535179 	 0.0020919859727193176
0.3618498759642748 	 0.0019019642223804894
0.3703069584005141 	 0.0016426876558783227
0.3789616980644717 	 0.0016140499862784337
0.3878187145610723 	 0.00140268115531458
0.3968827354637164 	 0.001280247416802628
0.40615859883769795 	 0.0011703832746719272
0.415651255822599 	 0.0010097582602585859
0.42536577327503877 	 0.0009667109475297558
0.435307336473189 	 0.0008150604712721598
0.4454812518844989 	 0.0007856236603421387
0.45589294999810615 	 0.0007018819385680917
0.4665479882234473 	 0.0005889831829450869
0.47745205385661293 	 0.0005685328032423396
0.4886109671160326 	 0.000494801962262045
0.5000306842491092 	 0.0004363012315323882
0.5117173007114605 	 0.00041721670136518895
0.5236770544204653 	 0.0003668832906303998
0.5359163290848515 	 0.0003180816809904592
0.5484416576121018 	 0.00030061364597399335
0.5612597255954972 	 0.0002509427078265549
0.5743773748826585 	 0.00023659950616065095
0.5878016072274913 	 0.00020663697102352432
0.6015395880274838 	 0.0001810467158717896
0.6155986501483509 	 0.00016571299359329189
0.6299862978380691 	 0.00013586321277266937
0.6447102107323871 	 0.00012573143227596472
0.6597782479539538 	 0.00010697931111527823
0.6751984523072503 	 9.568552359212882e-5
0.6909790545715643 	 7.844857729015945e-5
0.7071284778942999 	 6.342956743915441e-5
0.7236553422869657 	 5.291540486573064e-5
0.7405684692262438 	 4.221154593692158e-5
0.7578768863625929 	 3.0955942076685546e-5
0.7755898323389004 	 2.1730140673385162e-5
0.7937167617217549 	 1.655325934117141e-5
0.8122673500479715 	 1.0371492557148432e-5
0.831251498989063 	 3.845984769589663e-6
0.8506793416364156 	 -1.4900455641521818e-6
0.8705612479099865 	 -5.83467733411103e-6
0.8909078300934138 	 -1.0032374013404142e-5
0.9117299484984922 	 -1.4196603163312757e-5
0.9330387172620365 	 -1.8295114035345244e-5
0.9548455102782294 	 -2.019379175014652e-5
0.9771619672696177 	 -2.39165474204568e-5
1.0 	 -2.78050651514682e-5
