###############
#    GaPSE    #
############### 
#
# Power Spectrum Multipole computation of the file: "../test/datatest/Power_Spectrum/xi_LD_auto_doppler_withF_L2.txt"
#
# For this PS_multipole computation we set: 
# 	 #points used in Fourier transform N = 300
# 	 multipole degree in consideration L = 2
# computational time needed (in s) : 0.0067
# kwards passed to "print_PS_multipole": 
# 		ν = 1.5
# 		n_extrap_high = 500
# 		twofast = false
# 		n_pad = 500
# 		n_extrap_low = 500
# 
# k [h_0/Mpc] 	 	  P [(Mpc/h_0)^3]
0.003 	 -30.37553981489872
0.0030630064423751956 	 -31.131941071574026
0.0031273361553439847 	 -31.882152477794943
0.003193016930430501 	 -32.62352184863161
0.0032600771428405654 	 -33.35318285541472
0.0033285457637202576 	 -34.06804552532726
0.0033984523726719386 	 -34.76479084574883
0.0034698271705331392 	 -35.439864800543624
0.0035427009924238343 	 -36.089474097100315
0.003617105321067735 	 -36.70958246503205
0.0036930723003933577 	 -37.295910797924904
0.0037706347494207465 	 -37.843935332436175
0.003849826176439843 	 -38.34889278595394
0.003930680793486636 	 -38.80578348889627
0.004013233531123338 	 -39.20938040292532
0.004097520053528979 	 -39.55423977479514
0.004183576773906941 	 -39.83471573610913
0.0042714408702160655 	 -40.04497798077305
0.004361150301232175 	 -40.17903552905969
0.004452743822946892 	 -40.23076151493126
0.004546261005310896 	 -40.19392714933778
0.004641742249328804 	 -40.062236679755515
0.004739228804513085 	 -39.82937068521145
0.00483876278670456 	 -39.48903361317958
0.0049403871962671415 	 -39.03500765777176
0.005044145936664728 	 -38.46121199386481
0.005150083833428243 	 -37.76176976601404
0.005258246653521018 	 -36.93107793099621
0.0053686811251108975 	 -35.96388690171885
0.005481434957757598 	 -34.85538185011975
0.0055965568630240445 	 -33.60127181749408
0.005714096575520589 	 -32.197881860318994
0.005834104874391202 	 -30.642249265720316
0.005956633605250929 	 -28.932221771116343
0.006081735702584062 	 -27.066558630520994
0.006209465212612739 	 -25.04502866424272
0.006339877316645828 	 -22.868510080903512
0.006473028354918181 	 -20.53908281701088
0.006608975850930569 	 -18.060117415079404
0.006747778536300808 	 -15.436354028890413
0.0068894963761368146 	 -12.67397075309923
0.007034190594942543 	 -9.780637514765694
0.007181923703068007 	 -6.765554516387418
0.00733275952371481 	 -3.639468319895799
0.007486763220508845 	 -0.41466868735701357
0.007644001325652087 	 2.8950433995936344
0.007804541768665627 	 6.2744131370367295
0.007968453905736373 	 9.706820714350872
0.008135808549680101 	 13.174401371473056
0.008306678000533783 	 16.65819861008697
0.00848113607679043 	 20.138349018301827
0.008659258147289926 	 23.594301556292873
0.008841121163779648 	 27.005063827670078
0.009026803694158909 	 30.34947866795652
0.009216385956421652 	 33.606520976028335
0.009409949853311934 	 36.755612818536896
0.00960757900770733 	 39.7769479155481
0.009809358798745412 	 42.65181808848417
0.010015376398709003 	 45.362930674723415
0.010225720810686057 	 47.894709979542014
0.010440482907020501 	 50.2335667258209
0.010659755468570635 	 52.368130743958915
0.010883633224792027 	 54.28943097672063
0.011112212894662235 	 55.991017142833776
0.01134559322846505 	 57.46901353237395
0.011583875050452282 	 58.722100528531286
0.011827161302401546 	 59.75142011027992
0.01207555708808885 	 60.560409745761206
0.012329169718695202 	 61.15456501367437
0.012588108759166862 	 61.541146359023415
0.012852486075549244 	 61.72883830489214
0.013122415883314946 	 61.727382339895456
0.013398014796706758 	 61.547202120512665
0.013679401879116999 	 61.199044353232566
0.013966698694524911 	 60.69365685097175
0.014260029360014345 	 60.04152816048766
0.01455952059939446 	 59.252702106405806
0.014865301797946536 	 58.336685660780205
0.015177505058320608 	 57.30245027989105
0.015496265257606048 	 56.15852733055828
0.01582172010560075 	 54.91318312055059
0.016154010204304087 	 53.5746528318124
0.01649327910865936 	 52.15140253472173
0.01683967338857195 	 50.65238710505847
0.017193342692230006 	 49.08726259592861
0.017554439810755003 	 47.46652426342712
0.01792312074421006 	 45.80153764500855
0.018299544768994643 	 44.10445100685264
0.018683874506654638 	 42.38798665189465
0.019076275994137616 	 40.665128629066544
0.0194769187555236 	 38.94873834787157
0.01988597587526236 	 37.25114622171743
0.020303624072948775 	 35.58376669993014
0.02073004377966874 	 33.956791979627404
0.021165419215948403 	 32.37899693839469
0.021609938471340573 	 30.85767695324197
0.02206379358568259 	 29.398707543053032
0.022527180632060762 	 28.00669075233083
0.02300029980151729 	 26.685128556614405
0.02348335548953613 	 25.436556695561574
0.023976556384345364 	 24.262571397616746
0.024480115557073995 	 23.16371641222378
0.024994250553802298 	 22.13922749341564
0.02551918348954542 	 21.186691163375162
0.02605514114421078 	 20.30171351460921
0.026602355060570886 	 19.47772641589381
0.02716106164429367 	 18.70605290434313
0.027731502266073783 	 17.97631681006497
0.02831392336590878 	 17.2772004654376
0.028908576559565396 	 16.597472146798587
0.029515718747281795 	 15.927107727450895
0.030135612224752827 	 15.258292873061052
0.03076852479644621 	 14.586094342078916
0.031414729891298565 	 13.908668892961032
0.03207450668084138 	 13.226999416415635
0.032748140199807804 	 12.544284625935289
0.03343592146927248 	 11.865193488252125
0.03413814762237758 	 11.195215160319353
0.03485512203269933 	 10.540237244674993
0.03558715444531056 	 9.906349403149724
0.036334561110595784 	 9.29971825018748
0.03709766492087671 	 8.726326792326931
0.03787679554990722 	 8.19144013674929
0.038672289595298 	 7.698843281852638
0.039484490723932335 	 7.250086660699463
0.04031374982043614 	 6.844075933903999
0.04116042513876593 	 6.477230236229475
0.04202488245698067 	 6.144188775019391
0.04290749523526404 	 5.838762358961439
0.0438086447772656 	 5.554735080369412
0.044728720394830335 	 5.286286971970413
0.045668119576188014 	 5.028149580444543
0.046627248157674904 	 4.775841258020213
0.047606520499061736 	 4.526246067298081
0.04860635966256431 	 4.2783686856333745
0.049627197595613445 	 4.033714747976996
0.0506694753174636 	 3.7957758175698473
0.051733643109720666 	 3.5687020893247356
0.052820160710871186 	 3.355934270327085
0.053929497514897215 	 3.1596545550419126
0.055062132774062425 	 2.9811310907538746
0.056218555805957214 	 2.8210617246030076
0.05739926620489214 	 2.6789480566836135
0.05860477405773116 	 2.5517725161745126
0.05983560016425776 	 2.433563921433535
0.06109227626216929 	 2.3171756451247334
0.0623753452567966 	 2.1975064603227676
0.06368536145564836 	 2.0736405064855528
0.0650228908078813 	 1.948240785229189
0.06638851114879978 	 1.8253099148681302
0.06778281244949041 	 1.708663146030019
0.0692063970716996 	 1.6015558765681799
0.07065988002806392 	 1.5057829221575834
0.07214388924780607 	 1.419994642383006
0.07365906584801087 	 1.3397718119852666
0.07520606441059868 	 1.26074157415221
0.07678555326511591 	 1.181441214085816
0.0783982147774646 	 1.102460692609852
0.08004474564469612 	 1.0241356443249212
0.08172585719599604 	 0.9470598232571537
0.08344227569999038 	 0.8737368962374821
0.08519474267850594 	 0.8073122227103442
0.08698401522692024 	 0.7493461677694795
0.08881086634123961 	 0.6999303388786376
0.09067608525204644 	 0.6570191676071973
0.09258047776546026 	 0.6146392628841074
0.09452486661125946 	 0.5673995807383776
0.09651009179831457 	 0.5180011993245959
0.09853701097748636 	 0.4741002600397998
0.10060649981214538 	 0.4392272220258975
0.10271945235647342 	 0.41179611908706226
0.10487678144171003 	 0.3881202896604794
0.10707941907051106 	 0.3648210728182635
0.10932831681958961 	 0.3423790028597807
0.11162444625081315 	 0.32085512542224026
0.11396879933093482 	 0.2972293371710048
0.11636238886013975 	 0.276014535935189
0.11880624890959193 	 0.2616483292267026
0.12130143526817039 	 0.24698708035219843
0.1238490258985879 	 0.23118287218535347
0.1264501214030891 	 0.21866430641470344
0.12910584549892917 	 0.20709744808338157
0.13181734550383883 	 0.19363547750586102
0.13458579283168515 	 0.17651123634207116
0.13741238349854168 	 0.161186037569275
0.1402983386393881 	 0.15237846217798565
0.14324490503566084 	 0.1405322457306821
0.14625335565388412 	 0.12705579655917898
0.14932499019561263 	 0.11975769350070087
0.1524611356589248 	 0.10878081306929455
0.15566314691170843 	 0.09458804017219867
0.15893240727698651 	 0.08978372142190293
0.16227032913053607 	 0.08896285632236324
0.16567835451105847 	 0.08021777471577114
0.16915795574316456 	 0.07143369378434239
0.17271063607344378 	 0.06676578288383332
0.17633793031989203 	 0.062442006300491744
0.18004140553497924 	 0.061004023294971406
0.18382266168264225 	 0.05569090031953938
0.1876833323294964 	 0.04992465876350798
0.19162508535056413 	 0.048144434035869675
0.19564962364982488 	 0.045674255025503145
0.1997586858958987 	 0.041847726473726726
0.2039540472731803 	 0.03712472064118983
0.20823752024874886 	 0.03468742318152545
0.21261095535538432 	 0.032326964992742006
0.21707624199102915 	 0.02887133527475682
0.22163530923503977 	 0.025984513675076943
0.22629012668158185 	 0.024714664819789164
0.23104270529052814 	 0.023134577646938388
0.23589509825622715 	 0.020512236166006968
0.24084940189451784 	 0.01954240230596347
0.24590775654837363 	 0.018742841593335148
0.2510723475125666 	 0.016448209873900072
0.2563454059777518 	 0.015454657942348297
0.2617292099943796 	 0.015361669068781367
0.2672260854568517 	 0.012926429466039452
0.27283840710834717 	 0.012047696935993274
0.2785685995667513 	 0.012110736313729817
0.2844191383721318 	 0.009531340791301286
0.290392551056214 	 0.00918522725239562
0.2964914182343172 	 0.009227270375621857
0.30271837472022395 	 0.007041566328404188
0.30907611066446483 	 0.00781876751013227
0.31556737271650825 	 0.0068231645414823915
0.3221949652113598 	 0.0056402385040632014
0.32896175138108247 	 0.006388785465475824
0.335870654591761 	 0.00491853887376904
0.342924659606446 	 0.005131908712687378
0.35012681387462175 	 0.004574740937193688
0.3574802288487559 	 0.003873593631837438
0.3649880813284995 	 0.004019533270385903
0.37265361483311865 	 0.0033150061487554065
0.38048014100274913 	 0.003364138537407496
0.3884710410290812 	 0.002896143151510627
0.39662976711609155 	 0.002706678966272556
0.404959843971454 	 0.002566793776947856
0.4134648703292726 	 0.002283519066203866
0.4221485205047956 	 0.002186525021541899
0.43101454598178224 	 0.001908797273833799
0.4400667770332063 	 0.0018188856708753482
0.44930912437599996 	 0.0016841456673469153
0.4587455808605487 	 0.0015314278348641452
0.4683802231956707 	 0.0013840856427593013
0.4782172137098238 	 0.0013169892352281219
0.48826080214930206 	 0.0012080980589709307
0.4985153275141977 	 0.0010643647156975062
0.5089852199329227 	 0.000996600351772672
0.5196750025760993 	 0.0009213328485806299
0.5305892936106462 	 0.0008241880901938501
0.5417328081949045 	 0.0007664695773200405
0.5531103605156664 	 0.0007362520072439427
0.5647268658679844 	 0.0006486722612971728
0.5765873427786632 	 0.0005747077312779595
0.5886969151743469 	 0.0005384922102022223
0.6010608145951429 	 0.0004655239204750078
0.6136843824547352 	 0.00043681858375676846
0.6265730723479659 	 0.00042784537716634703
0.6397324524068798 	 0.00036493068498860866
0.6531682077062521 	 0.0003498860228798758
0.6668861427196368 	 0.00031419126105565324
0.6808921838269971 	 0.0002797250871350288
0.6951923818750029 	 0.00027613690819351937
0.709792914791097 	 0.00023835677535098668
0.7247000902524662 	 0.00023016047625661073
0.7399203484110632 	 0.00020757630197916144
0.7554602646758622 	 0.00019090832370308948
0.7713265525535454 	 0.00018139550964606994
0.7875260665488534 	 0.0001589123396815884
0.8040658051258449 	 0.00014916792735383396
0.820952913731354 	 0.00013394756173694232
0.8381946878819418 	 0.0001298888139032177
0.8557985763156849 	 0.00011706792248565303
0.8737721842101546 	 0.00010107418295558112
0.8921232764679831 	 9.21005321257057e-5
0.9108597810714333 	 8.810545134971308e-5
0.9299897925074203 	 8.312192387333311e-5
0.9495215752644668 	 7.45726686881396e-5
0.969463567403102 	 7.034500249867849e-5
0.9898243842012472 	 6.635438941488893e-5
1.0106128218761603 	 6.260805997614084e-5
1.0318378613845518 	 5.905439949556603e-5
1.0535086723025089 	 5.614247209931441e-5
1.075634616786908 	 5.212419804904577e-5
1.0982252536200245 	 4.812219721967605e-5
1.1212903423390896 	 4.682779579618651e-5
1.1448398474525734 	 4.361797458391128e-5
1.168883942745023 	 3.7835515418938655e-5
1.1934330156723083 	 3.643161011541332e-5
1.2184976718491793 	 3.504657400068114e-5
1.2440887396310716 	 3.197921491348571e-5
1.2702172747921365 	 3.060834150132148e-5
1.2968945653015262 	 2.8912669934341563e-5
1.3241321361999845 	 2.756328974393051e-5
1.351941754578861 	 2.5726857914570115e-5
1.3803354346636922 	 2.342079563609936e-5
1.409325443004552 	 2.2418032366533584e-5
1.4389243037754067 	 1.9807966938734558e-5
1.4691448041847714 	 1.7185639911302955e-5
1.5 	 1.618960166327606e-5
