###############
#    GaPSE    #
############### 
#
# Power Spectrum Multipole computation of the file: "../test/datatest/Power_Spectrum/xi_LD_auto_doppler_noF_L2.txt"
#
# For this PS_multipole computation we set: 
# 	 #points used in Fourier transform N = 300
# 	 multipole degree in consideration L = 2
# computational time needed (in s) : 0.0069
# kwards passed to "print_PS_multipole": 
# 		ν = 1.5
# 		n_extrap_high = 500
# 		twofast = false
# 		n_pad = 500
# 		n_extrap_low = 500
# 
# k [h_0/Mpc] 	 	  P [(Mpc/h_0)^3]
0.003 	 -50.19126035548064
0.003070115395897561 	 -49.98161146556374
0.0031418695147090755 	 -49.70827680440305
0.0032153006563365102 	 -49.36775602835884
0.003290448015819414 	 -48.95644923822289
0.0033673517042559207 	 -48.47065879739008
0.003446052770212661 	 -47.906600858909336
0.0035265932216351097 	 -47.26040597703573
0.0036090160482699727 	 -46.52812926881044
0.0036933652446116726 	 -45.705762785533054
0.0037796858333850815 	 -44.78924013758136
0.003868023889577147 	 -43.7744557969435
0.0039584265650301174 	 -42.657277130907076
0.004050942113609621 	 -41.43355942292186
0.004145619916960897 	 -40.09917080154451
0.004242510510867071 	 -38.650008737781455
0.004341665612223404 	 -37.082027070239214
0.004443138146642027 	 -35.3912662711926
0.004546982276701809 	 -33.57387870175181
0.004653253430858522 	 -31.626168984208324
0.004762008333030626 	 -29.54462936430057
0.004873305032876601 	 -27.325980039297853
0.004987202936779836 	 -24.967220177385936
0.0051037628395577675 	 -22.46567312000441
0.0052230469569120455 	 -19.819043320603303
0.0053451189586371925 	 -17.025477625374165
0.005470044002605322 	 -14.083623865949484
0.005597888769545238 	 -10.992704701911732
0.00572872149863429 	 -7.752587808480765
0.00586261202392216 	 -4.363861768888259
0.0059996318116058555 	 -0.8279219485666554
0.00613985399817597 	 2.852949144092593
0.006283353429454406 	 6.675491241015681
0.00643020670054457 	 10.635373629230331
0.00658049219671518 	 14.727107188912862
0.0067342901352396714 	 18.943945940633306
0.006891682608213461 	 23.277796977143133
0.00705275362637186 	 27.719131006266583
0.0072175891639322 	 32.25689161767316
0.007386277204483876 	 36.87841917537949
0.007558907787951048 	 41.56937634615089
0.007735573058652822 	 46.31368548065451
0.007916367314486803 	 51.09348576948299
0.008101387057262046 	 55.8890985300582
0.008290731044208481 	 60.67902070890037
0.008484500340690097 	 65.4399411657439
0.008682798374150256 	 70.14678067127646
0.00888573098931766 	 74.77277235921635
0.009093406504702738 	 79.28957197767755
0.00930593577041429 	 83.66740941444182
0.00952343222732758 	 87.87528920393704
0.009746011967635124 	 91.8812294151773
0.009973793796812826 	 95.6525572484883
0.010206899297034203 	 99.15625397242624
0.010445452892066899 	 102.35934755437923
0.010689581913685752 	 105.22936431181057
0.010939416669638246 	 107.73482342809649
0.011195090513198256 	 109.84577831572001
0.011456739914345562 	 111.5344025483383
0.011724504532608792 	 112.77559977482741
0.011998527291610996 	 113.54764290759012
0.012278954455357314 	 113.83282132825246
0.012565935706305813 	 113.61807998531565
0.012859624225262776 	 112.89564518496026
0.013160176773145495 	 111.6636049988872
0.013467753774655809 	 109.92643231324467
0.01378251940390943 	 107.69543210280284
0.014104641672066404 	 104.98907884056837
0.01443429251700978 	 101.83323670550597
0.014771647895120225 	 98.2612315092944
0.01511688787519545 	 94.31375222766562
0.015470196734564906 	 90.03857375236717
0.015831763057450612 	 85.49007055658377
0.016201779835627123 	 80.72851608870356
0.01658044457143381 	 75.81916076161755
0.016967959383195022 	 70.8310728075416
0.01736453111310382 	 65.83575911791799
0.017770371437627417 	 60.905566960066
0.018185696980492716 	 56.11188595497526
0.018610729428312826 	 51.52319275324824
0.01904569564891565 	 47.202970552562746
0.019490827812438372 	 43.207573754577204
0.019946363515251787 	 39.58411802074009
0.0204125459067813 	 36.36848036092443
0.02088962381929165 	 33.58353605445089
0.021377851900705232 	 31.237746795845435
0.02187749075052433 	 29.32423024074052
0.022388807058930413 	 27.82044891047309
0.022912073749134062 	 26.688617399497517
0.02344757012305227 	 25.87692205154771
0.023995582010390124 	 25.321596646942833
0.024556401921207085 	 24.949830030366012
0.025130329202048746 	 24.68344300106889
0.025717670195727974 	 24.4431756729354
0.02631873840484007 	 24.153368073901344
0.026933854659099966 	 23.74676510335925
0.02756334728658999 	 23.169102785487503
0.028207552289010396 	 22.383126414386307
0.028866813521025405 	 21.37167132437274
0.029541482873801324 	 20.139439901766316
0.030231920462833836 	 18.71318028400515
0.030938494820165544 	 17.14002481706201
0.0316615830910957 	 15.483882942667208
0.032401571235487585 	 13.819967081790393
0.03315885423378064 	 12.22772467400959
0.03393383629781764 	 10.782729738460109
0.034726931086599126 	 9.548325318288601
0.035538561927080506 	 8.567992337877234
0.03636916204012956 	 7.859533902445344
0.03721917477176495 	 7.412057950289295
0.0380890538297992 	 7.186499862570372
0.03897926352601248 	 7.1200168875332865
0.03989027902398636 	 7.134022973361325
0.04082258659272999 	 7.145083506329844
0.04177668386623388 	 7.077318837370939
0.04275308010908993 	 6.87449255372181
0.04375229648831957 	 6.509712529885891
0.0447748663515549 	 5.9906569295767085
0.04582133551172142 	 5.358708423421927
0.0468922625383745 	 4.6813593261137365
0.04798821905584463 	 4.03862917359105
0.04910979004835108 	 3.5058389611372562
0.050257574172246466 	 3.136337508758307
0.05143218407555913 	 2.9482963555543513
0.052634246725003796 	 2.9192699539132745
0.05386440374063494 	 2.9907261972762718
0.0551233117383218 	 3.0825067193618794
0.05641164268022747 	 3.114416330032334
0.057730084233479396 	 3.0294126233652054
0.05907934013722268 	 2.8112873976737505
0.060460130578251996 	 2.490270727669746
0.061873192575422745 	 2.1332458725496966
0.06331928037304664 	 1.8205213881776103
0.06479916584348154 	 1.6163577480754159
0.06631363889913065 	 1.5438455999930782
0.06786350791407077 	 1.5746735501169338
0.06944960015553482 	 1.6398929056689318
0.07107276222547901 	 1.6594724718594152
0.07273386051246984 	 1.5788787205503108
0.07443378165413307 	 1.3954499224280483
0.07617343301041041 	 1.160263545590545
0.07795374314787745 	 0.9521182255778561
0.07977566233538082 	 0.8348640724220159
0.08164016305125922 	 0.8206889944217404
0.08354824050241932 	 0.8623136280230709
0.0855009131555432 	 0.8821751451775768
0.08749922328071111 	 0.8228238685962446
0.08954423750772977 	 0.686126293629947
0.09163704739546297 	 0.5325229181991464
0.09377877001446838 	 0.43663269186520787
0.09597054854325197 	 0.4293730656171522
0.09821355287845732 	 0.47279421433330254
0.10050898025931694 	 0.49171180778892887
0.1028580559066976 	 0.43931363237037807
0.1052620336770814 	 0.3399045724040786
0.10772219673183166 	 0.2652316464797241
0.1102398582221007 	 0.2624509677079681
0.11281636198974516 	 0.30490618557637666
0.11545308328462293 	 0.32065396185677736
0.11815142949865466 	 0.2733099125901698
0.12091284091704159 	 0.20390205623038968
0.12373879148704058 	 0.17957746838153674
0.12663078960470703 	 0.20768787522450285
0.1295903789200252 	 0.226458504996376
0.13261913916085596 	 0.19078634849315856
0.13571868697614162 	 0.13625524826342314
0.13889067679881797 	 0.12478071930672852
0.1421368017288943 	 0.1488028736020098
0.1454587944371724 	 0.14528341428784064
0.1488584280900871 	 0.10227319741303538
0.15233751729616204 	 0.07825375854068371
0.15589791907458592 	 0.09552424504138399
0.15954153384642597 	 0.10049334904174503
0.163270306449008 	 0.06940070569103893
0.167086227174004 	 0.05405344154153113
0.17099133282978227 	 0.07176639756240279
0.1749877078285861 	 0.06994589069442263
0.179077485299122 	 0.04504124939885162
0.1832628482251511 	 0.047014805554837724
0.18754603061069136 	 0.05878791542852519
0.19192931867245283 	 0.042032741228680864
0.1964150520601421 	 0.033108373151983436
0.2010056251052876 	 0.044446178692272346
0.20570348809925224 	 0.03417409468106647
0.2105111486011149 	 0.02395779836404838
0.2154311727761206 	 0.03318760190347745
0.22046618676541163 	 0.024212222702024888
0.2256188780877723 	 0.0188990503341597
0.23089199707413477 	 0.025466592347047238
0.23628835833561176 	 0.016331488896487563
0.24181084226584035 	 0.01770776637422038
0.24746239657843755 	 0.01826799620037538
0.2532460378803895 	 0.01269491602862226
0.2591648532822135 	 0.015682258585356053
0.26522200204575186 	 0.011752376210066818
0.27142071727047895 	 0.011409017288074657
0.2777643076192186 	 0.010893598396680037
0.28425615908419627 	 0.008641544717362315
0.2908997367943656 	 0.009171963258660466
0.2976985868649765 	 0.007355965259405958
0.3046563382903704 	 0.007396991095558773
0.3117767048810138 	 0.006531987965395002
0.31906348724580336 	 0.005988099043661878
0.32652057482070185 	 0.005615418957150984
0.3341519479447858 	 0.004900467532195829
0.3419616799848156 	 0.00462978462761073
0.34995393950945886 	 0.004059366137580541
0.35813299251433095 	 0.003788150371184613
0.36650320469903763 	 0.0034093378404389234
0.3750690437974367 	 0.003143245460123348
0.3838350819623621 	 0.002862007497174264
0.39280599820608314 	 0.0026097751837763626
0.4019865808978016 	 0.002370404279413621
0.41138173031952013 	 0.0021509647492136464
0.42099646128164553 	 0.0019572530664026476
0.43083590579972353 	 0.001780033192296612
0.4409053158337339 	 0.0016262570320641002
0.4512100660914074 	 0.001478137965699988
0.4617556568970617 	 0.0013467351242898605
0.4725477171274867 	 0.0012214151830606888
0.48359200721644724 	 0.0011105063478756235
0.4948944222294061 	 0.0010093184487490292
0.5064609950101089 	 0.0009185465253779678
0.5182978994007108 	 0.0008349564259532065
0.5304114535371622 	 0.000758977327819639
0.542808123221615 	 0.000688735279456534
0.5554945253736465 	 0.0006259099281525471
0.5684774315621465 	 0.0005684085339476096
0.5817637716197489 	 0.0005164340496184879
0.5953606373417409 	 0.0004689035353915708
0.6092752862714207 	 0.00042562137941431696
0.6235151455739272 	 0.00038626274864051705
0.6380878160006073 	 0.0003507061714879661
0.6530010759460377 	 0.00031815586450835973
0.6682628855998674 	 0.00028878790453540213
0.683881391195694 	 0.0002618930393161521
0.6998649293592472 	 0.00023758732526611814
0.7162220315581942 	 0.00021550686912837132
0.7329614286559464 	 0.00019540981089828083
0.7500920555718972 	 0.00017717298996171993
0.7676230560505763 	 0.00016065681158256218
0.78556378754227 	 0.00014559021704990517
0.8039238261977074 	 0.00013198479567839744
0.822712971979485 	 0.00011959267951674661
0.8419412538929514 	 0.00010836686555633007
0.8616189353393487 	 9.818022397781103e-5
0.881756519594066 	 8.893615402253774e-5
0.9023647554129299 	 8.054949495077403e-5
0.9234546427695238 	 7.296054062489844e-5
0.9450374387265985 	 6.605082911416901e-5
0.9671246634447089 	 5.981399808961334e-5
0.9897281063312819 	 5.414467003871865e-5
1.0128598323334017 	 4.900653920689873e-5
1.0365321883776657 	 4.435498936636062e-5
1.0607578099605537 	 4.0136998601264054e-5
1.0855496278928243 	 3.631146325704612e-5
1.1109208752015423 	 3.28548835443506e-5
1.1368850941934152 	 2.970930549931776e-5
1.163456143683217 	 2.6877633782655074e-5
1.190648206391149 	 2.4292460246495304e-5
1.218475796513094 	 2.1852477841170295e-5
1.2469537674677968 	 1.960952590649091e-5
1.2760973198251162 	 1.7602541651923148e-5
1.305922009419567 	 1.5794403378244315e-5
1.3364437556534967 	 1.4176263772036478e-5
1.3676788499943184 	 1.2716228757768431e-5
1.3996439646703418 	 1.1409746241014055e-5
1.4323561615698388 	 1.0232218474893866e-5
1.4658329013480977 	 9.175801125151028e-6
1.5000920527473278 	 8.227536792867842e-6
1.5351519021343816 	 7.372445021370595e-6
1.571031163261396 	 6.606365215800748e-6
1.6077489872545545 	 5.917853934574833e-6
1.6453249728363057 	 5.296430352623005e-6
1.6837791767864916 	 4.7407379510521005e-6
1.7231321246479754 	 4.239082880258206e-6
1.7634048216824738 	 3.788506595945208e-6
1.8046187640824511 	 3.383499652646899e-6
1.8467959504450526 	 3.0182471388427146e-6
1.8899588935142075 	 2.69044468907197e-6
1.9341306321971612 	 2.3950517668485054e-6
1.9793347438618614 	 2.1282205642311166e-6
2.025595356921751 	 1.8894471036177915e-6
2.072937163714693 	 1.6729175323154185e-6
2.1213854336828994 	 1.4781288197971557e-6
2.170966026860897 	 1.3028345992069396e-6
2.2217054076787313 	 1.1440794691177388e-6
2.2736306590877784 	 1.0010831381582483e-6
2.3267694970167017 	 8.719514345816127e-7
2.3811502851652646 	 7.548563803842128e-7
2.4368020501439145 	 6.49627577785166e-7
2.493754496967189 	 5.53711277510142e-7
2.5520380249092467 	 4.672273191227333e-7
2.611683743729959 	 3.8902462008238227e-7
2.6727234902802413 	 3.176989283622511e-7
2.7351898454954764 	 2.533361712748311e-7
2.799116151786109 	 1.9496013735814121e-7
2.864536530834688 	 1.4168872120000773e-7
2.9314859018088533 	 9.371729082093438e-8
3.0 	 4.986074968173727e-8
