###############
#    GaPSE    #
############### 
#
# Power Spectrum Multipole computation of the file: "../test/datatest/Power_Spectrum/xi_LD_auto_doppler_noF_L0.txt"
#
# For this PS_multipole computation we set: 
# 	 #points used in Fourier transform N = 300
# 	 multipole degree in consideration L = 0
# computational time needed (in s) : 0.0064
# kwards passed to "print_PS_multipole": 
# 		ν = 1.5
# 		n_extrap_high = 500
# 		twofast = false
# 		n_pad = 500
# 		n_extrap_low = 500
# 
# k [h_0/Mpc] 	 	  P [(Mpc/h_0)^3]
0.001 	 1008.1398478894346
0.0010233717986325203 	 1000.8425306768576
0.0010472898382363584 	 993.4272506285237
0.0010717668854455034 	 985.8930537451215
0.001096816005273138 	 978.2390328713241
0.001122450568085307 	 970.4643305633182
0.0011486842567375536 	 962.5681418414887
0.0011755310738783698 	 954.5497203472512
0.0012030053494233243 	 946.4083806749989
0.001231121748203891 	 938.143503119656
0.001259895277795027 	 929.7545395864571
0.0012893412965257157 	 921.241015942421
0.0013194755216767058 	 912.602539071545
0.0013503140378698735 	 903.8388012331085
0.0013818733056536322 	 894.9495845094796
0.001414170170289024 	 885.9347681978664
0.0014472218707411344 	 876.7943328818543
0.0014810460488806755 	 867.5283667739806
0.001515660758900603 	 858.1370729788925
0.0015510844769528406 	 848.6207737625552
0.0015873361110102088 	 838.9799189871455
0.001624435010958867 	 829.2150921119317
0.0016624009789266117 	 819.3270164135488
0.0017012542798525892 	 809.3165637311241
0.0017410156523040153 	 799.1847602826927
0.001781706319545731 	 788.9327945704081
0.0018233480008684405 	 778.5620259601362
0.001865962923181746 	 768.0739906774435
0.0019095738328780967 	 757.4704114397947
0.0019542040079740535 	 746.7532048089157
0.001999877270535285 	 735.9244887734226
0.00204661799939199 	 724.9865924069362
0.0020944511431514688 	 713.9420628230097
0.0021434022335148567 	 702.7936739326725
0.00219349739890506 	 691.5444355429977
0.002244763378413224 	 680.1976000668245
0.002297227536071154 	 668.7566722544581
0.0023509178754572866 	 657.2254166063192
0.002405863054644067 	 645.6078648227179
0.0024620924014946252 	 633.9083247410572
0.0025196359293170162 	 622.1313865353072
0.002578524352884274 	 610.2819302212405
0.0026387891048289345 	 598.3651329620436
0.002700462352420682 	 586.3864738612922
0.0027635770147361603 	 574.3517409501887
0.0028281667802300325 	 562.2670355034647
0.002894266124716752 	 550.138775877197
0.0029619103297725533 	 537.9737019733369
0.0030311355015675795 	 525.7788765547277
0.0031019785901380964 	 513.5616870360042
0.0031744774091091933 	 501.3298462016887
0.0032486706558783746 	 489.0913898672539
0.0033245979322709418 	 476.85467558114794
0.003402299765678068 	 464.62837789954233
0.0034818176306889662 	 452.4214822720899
0.0035631939712285838 	 440.2432783534299
0.0036464722232127486 	 428.1033493443167
0.0037316968377327517 	 416.01156063462815
0.003818913304781854 	 403.97804618322584
0.003908168177536264 	 392.0131909428101
0.003999509097203665 	 380.12761294176255
0.004092984818452438 	 368.33214093264814
0.0041886452354352715 	 356.6377895572199
0.004286541408420925 	 345.05573266202344
0.0043867255910484985 	 333.5972717626435
0.004489251258218603 	 322.2738027146667
0.0045941731346364765 	 311.0967791198535
0.0047015472240221345 	 300.07767113813037
0.0048114308390032594 	 289.22792304365385
0.004923882631706742 	 278.55890590950554
0.00503896262506515 	 268.0818674652894
0.005156732244854969 	 257.80787980204303
0.0052772543524835375 	 247.74778246300718
0.0054005932785423745 	 237.91212402257628
0.005526814857144603 	 228.3111010044308
0.005655986461065007 	 218.95449336954886
0.005788177037701274 	 209.85159995008974
0.005923457145875806 	 201.01117088901657
0.006061898993497572 	 192.44133948836165
0.0062035764761042755 	 184.14955445274518
0.006348565216305216 	 176.14251079056388
0.006496942604146124 	 168.42608276915814
0.006648787838417263 	 161.00525827744966
0.0068041819689271 	 153.88407449914436
0.006963207939763884 	 147.06555846619236
0.007125950633568411 	 140.55167022722566
0.007292496916841444 	 134.34325138856096
0.007462935686310138 	 128.43998025688686
0.00763735791637802 	 122.84033235613872
0.00781585670768409 	 117.54154978622472
0.007998527336796709 	 112.53961892597002
0.008185467307069028 	 107.82925659066802
0.008376776400682916 	 103.40390793213365
0.008572556731909325 	 99.255753846189
0.008772912801613356 	 95.37573034780097
0.008977951553033322 	 91.75356068622402
0.00918778242886333 	 88.37779870386088
0.009402517429670132 	 85.23588627071202
0.009622271173675135 	 82.31422372771729
0.009847160957933775 	 79.59825298847598
0.010077306820944612 	 77.07255579576784
0.010312831606721848 	 74.72096445530038
0.010553861030365234 	 72.52668693143951
0.010800523745162528 	 70.4724464778879
0.011052951411260215 	 68.54063397450618
0.011311278765939214 	 66.71347525354996
0.011575643695533043 	 64.97321183876562
0.011846187309026835 	 63.30229425528349
0.012123054013376522 	 61.683589422900965
0.012406391590588317 	 60.10059836223006
0.012696351276599734 	 58.537684366138095
0.01299308784200416 	 56.98030928373964
0.01329675967466212 	 55.415272850868725
0.01360752886424333 	 53.83095288144806
0.013925561288744627 	 52.21753911977895
0.014251026703029976 	 50.567253211668366
0.014584098829439856 	 48.87454826786249
0.0149249554505183 	 47.136275522278325
0.01527377850390714 	 45.35180904009473
0.015630754179458167 	 43.52311705458419
0.015996073018614877 	 41.65476703296621
0.01636993001611703 	 39.75385645747505
0.016752524724082153 	 37.82985950458462
0.01714406135851971 	 35.89438398532009
0.017544748908334597 	 33.960839128431
0.017954801246878312 	 32.04401501126486
0.018374437246107267 	 30.159584269241265
0.018803880893409154 	 28.32354022588003
0.0192433614111598 	 26.551589224226504
0.01969311337907423 	 24.85852309496009
0.020153376859417333 	 23.257596849335833
0.020624397525140916 	 21.75993951208183
0.021106426791015546 	 20.374028016179995
0.02159972194782718 	 19.10524809606016
0.022104546299710218 	 17.955568418257666
0.022621169304690252 	 16.923349449377852
0.02314986671851161 	 16.003304652038448
0.023690920741826334 	 15.186633141365617
0.024244620170823284 	 14.461336125947726
0.024811260551377688 	 13.812726656911106
0.025391144336803468 	 13.22413660258378
0.025984581049292486 	 12.677807594215247
0.02659188744512694 	 12.155939078563453
0.02721338768375307 	 11.6418405376345
0.02784941350080644 	 11.121107297050658
0.028500304385181068 	 10.582719486425571
0.02916640776023704 	 10.01994434609749
0.029848079169243258 	 9.430924055676648
0.03054568246515432 	 8.818852572283845
0.03125959000482279 	 8.19167840235414
0.03199018284775065 	 7.561327178878673
0.032737850959485774 	 6.94249131034364
0.033502993419772316 	 6.351083069052606
0.034286018635565865 	 5.802490058160431
0.03508734455902713 	 5.309792927902802
0.03590739891061055 	 4.882125305410947
0.0367466194073669 	 4.523372581101827
0.03760545399658172 	 4.231409546301903
0.03848436109487431 	 3.998069706855725
0.03938380983288489 	 3.8099782125870165
0.04030428030568053 	 3.6502587870174747
0.04124626382901352 	 3.500954047109532
0.04221026320156901 	 3.3458033366292734
0.04319679297334173 	 3.1728864285666027
0.04420637972028532 	 2.976614189172272
0.04523956232538054 	 2.758637434175114
0.046296892266272656 	 2.527437820475944
0.04737893390963144 	 2.2965807083191407
0.0484862648123908 	 2.081832069617366
0.04961947603002903 	 1.897585805782034
0.050779172432054015 	 1.7533000948953539
0.05196597302486197 	 1.6508460231885482
0.053180511282142 	 1.5836501653121065
0.054423435483002665 	 1.5381201364811095
0.055695409058001334 	 1.4971611935372588
0.05699711094326075 	 1.4448764300975159
0.05832923594286203 	 1.3711167803896545
0.05969249509970734 	 1.2745193806561592
0.061087616075050366 	 1.1629434012240891
0.06251534353689712 	 1.0508009209452265
0.06397643955748428 	 0.9537782474520771
0.06547168402004735 	 0.8826800220770303
0.06700187503509587 	 0.8389259636215537
0.06856782936641741 	 0.8138043093736647
0.0701703828670383 	 0.7920391789426989
0.07181039092537353 	 0.7584261151502749
0.07348872892180387 	 0.7048736865535771
0.0752062926959241 	 0.6345019045891578
0.07696399902471159 	 0.560175576657047
0.07876278611187058 	 0.4975896615948523
0.08060361408861344 	 0.456489362049491
0.08248746552614585 	 0.43504775158589964
0.08441534596012984 	 0.4209104561199805
0.0863882844274045 	 0.39896998566045727
0.08840733401525062 	 0.3615364861865341
0.09047357242349298 	 0.313800101999511
0.09258810253973954 	 0.2700289400317082
0.09475205302806543 	 0.24281373918820978
0.0969665789314552 	 0.23313844270240275
0.09923286228832551 	 0.22938329488485723
0.10155211276345681 	 0.21728362771833223
0.10392556829367125 	 0.19264609724884976
0.10635449574860112 	 0.16496873010849075
0.10884019160690062 	 0.1480187119016986
0.11138398264826194 	 0.14555691096810924
0.1139872266616052 	 0.14717861016004646
0.11665131316981961 	 0.13972961826711794
0.11937766417144365 	 0.12209939039320913
0.1221677348996792 	 0.10618340744899701
0.12502301459914558 	 0.10166054070077252
0.12794502732078736 	 0.10335660764510286
0.13093533273536107 	 0.09837013508305124
0.13399552696593386 	 0.08415008354384328
0.13712724343984006 	 0.071932597530805
0.1403321537605485 	 0.06947956559677676
0.14361196859990782 	 0.06914826032916617
0.14696843861124462 	 0.060893964692222524
0.15040335536380248 	 0.04941532269815508
0.15391855229902057 	 0.0455195393211174
0.15751590570916224 	 0.04642650302137241
0.16119733573881576 	 0.04165880560181438
0.16496480740980204 	 0.0336869690699348
0.16882033167003632 	 0.03221421745158933
0.1727659664669036 	 0.033542503163094456
0.17680381784572075 	 0.029164399977874712
0.18093604107387165 	 0.024656641217451987
0.1851648417912155 	 0.025705493601417523
0.18949247718738216 	 0.024640125991481087
0.193921257206583 	 0.019923151020282324
0.1984535457805803 	 0.019297150108001003
0.20309176209047358 	 0.01919544971230604
0.20783838185797573 	 0.015233763192733377
0.2126959386668691 	 0.014237219021149728
0.2176670253153459 	 0.0142233053907339
0.22275429519995577 	 0.011150414834004266
0.227960463731898 	 0.010979675460013988
0.23328830978641574 	 0.010556912449645428
0.23874067718606473 	 0.008565071017286168
0.24432047621864877 	 0.00900880086321101
0.2500306851906324 	 0.007816144337882686
0.25587435201685876 	 0.0070741505726758325
0.2618545958474233 	 0.00696110631244201
0.2679746087325691 	 0.005763237257570139
0.274237657326495 	 0.005647893777708314
0.2806470846309838 	 0.004894908161541489
0.2872063117797829 	 0.00447331051179332
0.29391883986468864 	 0.004170244227336821
0.30078825180430996 	 0.003681461473713763
0.3078182142565079 	 0.0035237360849364988
0.31501247957553286 	 0.0031237859456236207
0.322374887814903 	 0.0029311862336326108
0.329909368777094 	 0.002633554856975514
0.33761994411113394 	 0.0023987806577399147
0.3455107294592219 	 0.0021833406129904537
0.3535859366535179 	 0.001968989671056809
0.3618498759642748 	 0.0018110359667773144
0.3703069584005141 	 0.0016427654594621988
0.3789616980644717 	 0.0015111652387373802
0.3878187145610723 	 0.0013731152661346033
0.3968827354637164 	 0.0012525641279175401
0.40615859883769795 	 0.0011351921348245842
0.415651255822599 	 0.0010325430201002705
0.42536577327503877 	 0.0009384499704592088
0.435307336473189 	 0.0008559712577030188
0.4454812518844989 	 0.0007797693069133339
0.45589294999810615 	 0.0007100782429447069
0.4665479882234473 	 0.0006451523868238969
0.47745205385661293 	 0.0005860422747408994
0.4886109671160326 	 0.0005325502641424893
0.5000306842491092 	 0.00048452705296549224
0.5117173007114605 	 0.0004406461631695385
0.5236770544204653 	 0.00040065752536592
0.5359163290848515 	 0.00036390423376455287
0.5484416576121018 	 0.0003304647004214277
0.5612597255954972 	 0.0003002281619437252
0.5743773748826585 	 0.00027279124590468164
0.5878016072274913 	 0.0002477922454253938
0.6015395880274838 	 0.00022497366666108184
0.6155986501483509 	 0.00020421965679618274
0.6299862978380691 	 0.00018543055765238043
0.6447102107323871 	 0.00016831502498602832
0.6597782479539538 	 0.00015276081773383553
0.6751984523072503 	 0.0001386514906218067
0.6909790545715643 	 0.00012579278944915406
0.7071284778942999 	 0.00011413346655524371
0.7236553422869657 	 0.00010354955263935494
0.7405684692262438 	 9.393716751575701e-5
0.7578768863625929 	 8.519984409931838e-5
0.7755898323389004 	 7.72666657209552e-5
0.7937167617217549 	 7.00785797149222e-5
0.8122673500479715 	 6.355237762493572e-5
0.831251498989063 	 5.761371372747447e-5
0.8506793416364156 	 5.2239534658999886e-5
0.8705612479099865 	 4.737182380523637e-5
0.8909078300934138 	 4.293852062877764e-5
0.9117299484984922 	 3.892209673794292e-5
0.9330387172620365 	 3.529272642178979e-5
0.9548455102782294 	 3.199131445025055e-5
0.9771619672696177 	 2.8996261978199725e-5
1.0 	 2.6285683132383367e-5
