# This is an integration map on mu of the ξ multipole auto_doppler GR effect.
# The following parameters were used for this computation: 
# CLASS Power Spectrum input file : "file_pk.txt"
# F window function input file : "../data/F_REFERENCE.txt"
# CLASS Background input file: "../data/WideA_ZA_background.dat"
# 	 z_min = 0.05 	 z_max = 0.2
# 	 k_min = 1.0e-8 	 k_max = 10.0
# 	 h_0 = 0.7 	 Ω_b = 0.0489 	 Ω_cdm = 0.25102 	 Ω_M0 = 0.29992
# 	 comoving s_min = 148.1920001343431 Mpc/h_0
# 	 comoving s_max = 571.7022420911966 Mpc/h_0
# 	 comoving s_eff = 435.37470960794167 Mpc/h_0
# 	 comoving z_eff = 0.15045636097417317 
# 	 Volume of the survey V_survey = 3.845366169354268e8
# 	 σ_0 = 15.593462966741178
# 	 σ_1 = 15.074895881392285
# 	 σ_2 = 100.85852368830221
# 	 σ_3 = 15.593462966741178
# 
# computational time needed (in s) : 1.3362
# kwards passed: 
# 		use_windows = false
# 		enhancer = 1.0e6
# 		use_my = false
# 		μ_rtol = 0.001
# 		μ_atol = 1.0e-8
# 
# s [Mpc/h_0] 	 	 xi
0.1 	 4.228436268570134e-5
0.10974987654930562 	 4.2194839990728446e-5
0.12045035402587821 	 4.210545346654203e-5
0.1321941148466029 	 4.2016192754341126e-5
0.14508287784959398 	 4.192704485919247e-5
0.1592282793341092 	 4.183799369657534e-5
0.17475284000076838 	 4.1749019535158e-5
0.19179102616724888 	 4.1660099081453665e-5
0.21049041445120203 	 4.157120574658739e-5
0.23101297000831597 	 4.148230724006046e-5
0.2535364493970112 	 4.1393364172980666e-5
0.2782559402207124 	 4.130432868674033e-5
0.30538555088334157 	 4.121514281746633e-5
0.3351602650938842 	 4.112573754137106e-5
0.3678379771828633 	 4.103603092734953e-5
0.40370172585965547 	 4.094592388563156e-5
0.44306214575838804 	 4.0855296588594146e-5
0.4862601580065353 	 4.0764004305921604e-5
0.533669923120631 	 4.0671872458356934e-5
0.5857020818056666 	 4.057869186442005e-5
0.6428073117284321 	 4.048421143343112e-5
0.7054802310718643 	 4.038812825252937e-5
0.7742636826811271 	 4.029007700750084e-5
0.8497534359086443 	 4.018961730274911e-5
0.9326033468832199 	 4.008623107149563e-5
1.0235310218990261 	 3.995554131002142e-5
1.1233240329780274 	 3.9866247898973756e-5
1.2328467394420661 	 3.976406997468875e-5
1.353047774579807 	 3.964905216184518e-5
1.484968262254465 	 3.9519854209374586e-5
1.6297508346206442 	 3.93750581030065e-5
1.788649529057435 	 3.921317415557573e-5
1.9630406500402708 	 3.9032649495871766e-5
2.154434690031884 	 3.883187867847519e-5
2.3644894126454075 	 3.8609215945796905e-5
2.595024211399736 	 3.8362987149657464e-5
2.8480358684358014 	 3.809150008361492e-5
3.1257158496882362 	 3.779305154089324e-5
3.4304692863149184 	 3.746592584553937e-5
3.7649358067924683 	 3.710838774545583e-5
4.132012400115337 	 3.671867050251113e-5
4.534878508128582 	 3.629496415022525e-5
4.977023564332112 	 3.583541483243013e-5
5.462277217684341 	 3.5338148657314295e-5
5.99484250318941 	 3.4801332314289965e-5
6.579332246575681 	 3.422327926665823e-5
7.220809018385464 	 3.360258501096714e-5
7.924828983539173 	 3.2938246158044335e-5
8.697490026177835 	 3.222970124713574e-5
9.54548456661834 	 3.1476756196569584e-5
10.476157527896646 	 3.067945161540095e-5
11.497569953977356 	 2.983803847960285e-5
12.618568830660204 	 2.8953187241080238e-5
13.848863713938732 	 2.8026277041285836e-5
15.199110829529339 	 2.7059380796299457e-5
16.68100537200059 	 2.6054939987406676e-5
18.30738280295368 	 2.5015777833409678e-5
20.09233002565047 	 2.3945498526792617e-5
22.051307399030456 	 2.28482873947967e-5
24.20128264794382 	 2.1728636109177477e-5
26.560877829466868 	 2.059171776814369e-5
29.150530628251772 	 1.944302752237133e-5
31.992671377973828 	 1.8288468920249257e-5
35.11191734215131 	 1.7134201145292627e-5
38.53528593710529 	 1.598660439362823e-5
42.29242874389499 	 1.4852111831683214e-5
46.4158883361278 	 1.3737177117596015e-5
50.94138014816378 	 1.2648126326137e-5
55.90810182512222 	 1.1591051096046752e-5
61.35907273413173 	 1.0571717711170286e-5
67.34150657750821 	 9.595499578368854e-6
73.90722033525779 	 8.667415777448102e-6
81.11308307896873 	 7.79238961286894e-6
89.02150854450383 	 6.974955260319137e-6
97.70099572992251 	 6.210750858733101e-6
107.22672220103232 	 5.471557315462793e-6
117.68119524349979 	 4.750408017066333e-6
129.1549665014884 	 4.078953098692836e-6
141.74741629268047 	 3.4792038067600703e-6
155.56761439304722 	 2.9553473691884022e-6
170.73526474706904 	 2.502423991366344e-6
187.3817422860385 	 2.1129684187127477e-6
205.65123083486515 	 1.7803986435621995e-6
225.7019719633919 	 1.498092519991356e-6
247.70763559917114 	 1.2605641318598124e-6
271.85882427329403 	 1.061614520340842e-6
298.364724028334 	 8.960852406049965e-7
327.45491628777285 	 7.622598597603785e-7
359.38136638046257 	 6.599796961991542e-7
394.4206059437656 	 5.808226986200721e-7
432.8761281083057 	 5.171133801138507e-7
475.0810162102798 	 4.464263018092116e-7
521.4008287999684 	 3.604610491326466e-7
572.236765935022 	 2.745720259511301e-7
628.0291441834253 	 2.0266869283912848e-7
689.2612104349695 	 1.4792034085333475e-7
756.463327554629 	 1.0757549179195784e-7
830.2175681319744 	 7.84997300053998e-8
911.1627561154896 	 5.797912977551648e-8
1000.0 	 4.374964218979248e-8
