# This is an integration map on mu of the ξ multipole auto_doppler GR effect.
# The following parameters were used for this computation: 
# CLASS Power Spectrum input file : "file_pk.txt"
# F window function input file : "../data/F_REFERENCE.txt"
# CLASS Background input file: "../data/WideA_ZA_background.dat"
# 	 z_min = 0.05 	 z_max = 0.2
# 	 k_min = 1.0e-8 	 k_max = 10.0
# 	 h_0 = 0.7 	 Ω_b = 0.0489 	 Ω_cdm = 0.25102 	 Ω_M0 = 0.29992
# 	 comoving s_min = 148.19200014818588 Mpc/h_0
# 	 comoving s_max = 571.7022420258767 Mpc/h_0
# 	 comoving s_eff = 435.3747095691862 Mpc/h_0
# 	 comoving z_eff = 0.15045636096027523 
# 	 Volume of the survey V_survey = 3.845366167993746e8
# 	 σ_0 = 15.593462966741178
# 	 σ_1 = 15.074895881392285
# 	 σ_2 = 100.85852368830221
# 	 σ_3 = 3735.1227501923527
# 
# computational time needed (in s) : 0.0568
# kwards passed: 
# 		use_windows = false
# 		enhancer = 1.0e6
# 		use_my = false
# 		N_μs = 50
# 
# s [Mpc/h_0] 	 	 xi
0.1 	 4.0584111686041285e-5
0.10974987654930562 	 4.058433556766483e-5
0.12045035402587821 	 4.058098158498663e-5
0.1321941148466029 	 4.0576200231489896e-5
0.14508287784959398 	 4.057167884623046e-5
0.1592282793341092 	 4.0566163685572445e-5
0.17475284000076838 	 4.055962229827716e-5
0.19179102616724888 	 4.055266302375803e-5
0.21049041445120203 	 4.054431750306843e-5
0.23101297000831597 	 4.0534819611773926e-5
0.2535364493970112 	 4.052387023321821e-5
0.2782559402207124 	 4.0511297439914243e-5
0.30538555088334157 	 4.049683701944167e-5
0.3351602650938842 	 4.048025738806218e-5
0.3678379771828633 	 4.04612285885442e-5
0.40370172585965547 	 4.0439428869837115e-5
0.44306214575838804 	 4.0414468862903414e-5
0.4862601580065353 	 4.038591733505597e-5
0.533669923120631 	 4.035329135652219e-5
0.5857020818056666 	 4.031604863462056e-5
0.6428073117284321 	 4.0273586473337944e-5
0.7054802310718643 	 4.02252334332293e-5
0.7742636826811271 	 4.0170244968976226e-5
0.8497534359086443 	 4.01077986616579e-5
0.9326033468832199 	 4.003699002738344e-5
1.0235310218990261 	 3.9956830724915806e-5
1.1233240329780274 	 3.9866245414237896e-5
1.2328467394420661 	 3.976406998107522e-5
1.353047774579807 	 3.964905216463449e-5
1.484968262254465 	 3.951985421213538e-5
1.6297508346206442 	 3.9375058105745735e-5
1.788649529057435 	 3.921317415830525e-5
1.9630406500402708 	 3.903264949855938e-5
2.154434690031884 	 3.88318786811406e-5
2.3644894126454075 	 3.860921594843253e-5
2.595024211399736 	 3.8362987152251e-5
2.8480358684358014 	 3.8091500086170674e-5
3.1257158496882362 	 3.7793051543392325e-5
3.4304692863149184 	 3.746592584798399e-5
3.7649358067924683 	 3.710838774784638e-5
4.132012400115337 	 3.671867050483627e-5
4.534878508128582 	 3.629496415247885e-5
4.977023564332112 	 3.583541483461001e-5
5.462277217684341 	 3.5338148659423055e-5
5.99484250318941 	 3.480133231632618e-5
6.579332246575681 	 3.42232792686095e-5
7.220809018385464 	 3.360258501286055e-5
7.924828983539173 	 3.2938246159889715e-5
8.697490026177835 	 3.222970124895476e-5
9.54548456661834 	 3.147675619839655e-5
10.476157527896646 	 3.067945161728558e-5
11.497569953977356 	 2.983803848161858e-5
12.618568830660204 	 2.8953187243326176e-5
13.848863713938732 	 2.8026277043887694e-5
15.199110829529339 	 2.7059380799427116e-5
16.68100537200059 	 2.6054939991275838e-5
18.30738280295368 	 2.501577783829814e-5
20.09233002565047 	 2.3945498533054555e-5
22.051307399030456 	 2.2848287402874122e-5
24.20128264794382 	 2.1728636119604263e-5
26.560877829466868 	 2.0591717781638386e-5
29.150530628251772 	 1.9443027539581757e-5
31.992671377973828 	 1.828846894187975e-5
35.11191734215131 	 1.7134201172027925e-5
38.53528593710529 	 1.5986604426481714e-5
42.29242874389499 	 1.4852111870693815e-5
46.4158883361278 	 1.3737177165685154e-5
50.94138014816378 	 1.2648126381977737e-5
55.90810182512222 	 1.1591051162082527e-5
61.35907273413173 	 1.0571717791348312e-5
67.34150657750821 	 9.595499674339305e-6
73.90722033525779 	 8.667415896826926e-6
81.11308307896873 	 7.792389764410733e-6
89.02150854450383 	 6.974955443210172e-6
97.70099572992251 	 6.210751095835113e-6
107.22672220103232 	 5.471557616675275e-6
117.68119524349979 	 4.75040838840715e-6
129.1549665014884 	 4.078953579910753e-6
141.74741629268047 	 3.4792044185451307e-6
155.56761439304722 	 2.9553482904630055e-6
170.73526474706904 	 2.503230466533807e-6
187.3817422860385 	 2.1159677471792463e-6
205.65123083486515 	 1.7859748665975407e-6
225.7019719633919 	 1.5062173564144938e-6
247.70763559917114 	 1.2705775202049497e-6
271.85882427329403 	 1.072961440267667e-6
298.364724028334 	 9.080888629317951e-7
327.45491628777285 	 7.717263885038562e-7
359.38136638046257 	 6.610380897796236e-7
394.4206059437656 	 5.756897962456599e-7
432.8761281083057 	 5.30581001608627e-7
475.0810162102798 	 4.729857629550595e-7
521.4008287999684 	 3.704609968300901e-7
572.236765935022 	 2.787922341787399e-7
628.0291441834253 	 2.0504533623026667e-7
689.2612104349695 	 1.4847538727645936e-7
756.463327554629 	 1.0626819074557918e-7
830.2175681319744 	 7.507442616341935e-8
911.1627561154896 	 5.204414072888205e-8
1000.0 	 3.541172913870852e-8
