# This is an integration map on mu of the ξ multipole auto_integratedgp GR effect.
# The following parameters were used for this computation: 
# CLASS Power Spectrum input file : "file_pk.txt"
# F window function input file : "../data/F_REFERENCE.txt"
# CLASS Background input file: "../data/WideA_ZA_background.dat"
# 	 z_min = 0.05 	 z_max = 0.2
# 	 k_min = 1.0e-8 	 k_max = 10.0
# 	 h_0 = 0.7 	 Ω_b = 0.0489 	 Ω_cdm = 0.25102 	 Ω_M0 = 0.29992
# 	 comoving s_min = 148.1920001343431 Mpc/h_0
# 	 comoving s_max = 571.7022420911966 Mpc/h_0
# 	 comoving s_eff = 435.37470960794167 Mpc/h_0
# 	 comoving z_eff = 0.15045636097417317 
# 	 Volume of the survey V_survey = 3.845366169354268e8
# 	 σ_0 = 15.593462966741178
# 	 σ_1 = 15.074895881392285
# 	 σ_2 = 100.85852368830221
# 	 σ_3 = 3735.1227501923527
# 
# computational time needed (in s) : 4.1189
# kwards passed: 
# 		use_windows = false
# 		N_χs = 50
# 		enhancer = 1.0e10
# 		use_my = false
# 		μ_rtol = 0.001
# 		μ_atol = 1.0e-8
# 
# s [Mpc/h_0] 	 	 xi
0.1 	 -3.376459983231602e-10
0.10974987654930562 	 -3.376460083217709e-10
0.12045035402587821 	 -3.3764602036507774e-10
0.1321941148466029 	 -3.3764603487121355e-10
0.14508287784959398 	 -3.376460523438108e-10
0.1592282793341092 	 -3.376460733894837e-10
0.17475284000076838 	 -3.37646098738882e-10
0.19179102616724888 	 -3.3764612927204135e-10
0.21049041445120203 	 -3.3764616604892157e-10
0.23101297000831597 	 -3.376462103461932e-10
0.2535364493970112 	 -3.3764626370154686e-10
0.2782559402207124 	 -3.376463279670599e-10
0.30538555088334157 	 -3.3764640537346277e-10
0.3351602650938842 	 -3.3764649860751856e-10
0.3678379771828633 	 -3.3764661090532934e-10
0.40370172585965547 	 -3.3764674616465913e-10
0.44306214575838804 	 -3.3764690908017e-10
0.4862601580065353 	 -3.376471053062949e-10
0.533669923120631 	 -3.376473416534011e-10
0.5857020818056666 	 -3.37647626324042e-10
0.6428073117284321 	 -3.376479691975085e-10
0.7054802310718643 	 -3.3764838217215146e-10
0.7742636826811271 	 -3.3764887957693955e-10
0.8497534359086443 	 -3.376494786678219e-10
0.9326033468832199 	 -3.3765020022548295e-10
1.0235310218990261 	 -3.376510692737877e-10
1.1233240329780274 	 -3.3765211594474736e-10
1.2328467394420661 	 -3.376533765197623e-10
1.353047774579807 	 -3.376548946817898e-10
1.484968262254465 	 -3.376567230226895e-10
1.6297508346206442 	 -3.3765892485715084e-10
1.788649529057435 	 -3.376615764016806e-10
1.9630406500402708 	 -3.376647693925322e-10
2.154434690031884 	 -3.376686142368707e-10
2.3644894126454075 	 -3.3767324380554046e-10
2.595024211399736 	 -3.3767881798567193e-10
2.8480358684358014 	 -3.3768552915431033e-10
3.1257158496882362 	 -3.376936087431613e-10
3.4304692863149184 	 -3.377033351282484e-10
3.7649358067924683 	 -3.3771504307887055e-10
4.132012400115337 	 -3.3772913511507753e-10
4.534878508128582 	 -3.3774609510346564e-10
4.977023564332112 	 -3.37766504529773e-10
5.462277217684341 	 -3.377910619703628e-10
5.99484250318941 	 -3.3782060636819084e-10
6.579332246575681 	 -3.378561566968153e-10
7.220809018385464 	 -3.3789893589793744e-10
7.924828983539173 	 -3.379503910762018e-10
8.697490026177835 	 -3.380122717625112e-10
9.54548456661834 	 -3.3808664128708785e-10
10.476157527896646 	 -3.3817599252363586e-10
11.497569953977356 	 -3.3828332397533965e-10
12.618568830660204 	 -3.3841215268353333e-10
13.848863713938732 	 -3.3856671282868563e-10
15.199110829529339 	 -3.3875207975433517e-10
16.68100537200059 	 -3.38974249624577e-10
18.30738280295368 	 -3.392403226061129e-10
20.09233002565047 	 -3.395587464267223e-10
22.051307399030456 	 -3.39939518802457e-10
24.20128264794382 	 -3.403944544927086e-10
26.560877829466868 	 -3.409375663626125e-10
29.150530628251772 	 -3.4158527078805934e-10
31.992671377973828 	 -3.423566479910011e-10
35.11191734215131 	 -3.4327424611531635e-10
38.53528593710529 	 -3.4436409106634134e-10
42.29242874389499 	 -3.456565886612419e-10
46.4158883361278 	 -3.471872770510387e-10
50.94138014816378 	 -3.489966397734534e-10
55.90810182512222 	 -3.5113159520868684e-10
61.35907273413173 	 -3.536455682453771e-10
67.34150657750821 	 -3.5659959085509757e-10
73.90722033525779 	 -3.6006305412249947e-10
81.11308307896873 	 -3.641142841177893e-10
89.02150854450383 	 -3.688413089524668e-10
97.70099572992251 	 -3.7434246498080304e-10
107.22672220103232 	 -3.8072718648708996e-10
117.68119524349979 	 -3.8811579327925715e-10
129.1549665014884 	 -3.9664033926475297e-10
141.74741629268047 	 -4.064431585413981e-10
155.56761439304722 	 -4.17678875607144e-10
170.73526474706904 	 -4.3033594438849987e-10
187.3817422860385 	 -4.442615468909706e-10
205.65123083486515 	 -4.595097644274755e-10
225.7019719633919 	 -4.763027704005868e-10
247.70763559917114 	 -4.944263689391858e-10
271.85882427329403 	 -5.14193467236268e-10
298.364724028334 	 -5.352861022679701e-10
327.45491628777285 	 -5.58176539723639e-10
359.38136638046257 	 -5.829002923677503e-10
394.4206059437656 	 -6.090965745837924e-10
432.8761281083057 	 -6.354138313553979e-10
475.0810162102798 	 -6.604215890893324e-10
521.4008287999684 	 -6.841234331042626e-10
572.236765935022 	 -7.072132281314666e-10
628.0291441834253 	 -7.287774519335051e-10
689.2612104349695 	 -7.458049730371651e-10
756.463327554629 	 -7.572367486665413e-10
830.2175681319744 	 -7.596463949641727e-10
911.1627561154896 	 -7.502572701984379e-10
1000.0 	 -7.249409050636449e-10
