# This is an integration map on mu of the ξ multipole auto_integratedgp GR effect.
# The following parameters were used for this computation: 
# CLASS Power Spectrum input file : "file_pk.txt"
# F window function input file : "../data/F_REFERENCE.txt"
# CLASS Background input file: "../data/WideA_ZA_background.dat"
# 	 z_min = 0.05 	 z_max = 0.2
# 	 k_min = 1.0e-8 	 k_max = 10.0
# 	 h_0 = 0.7 	 Ω_b = 0.0489 	 Ω_cdm = 0.25102 	 Ω_M0 = 0.29992
# 	 comoving s_min = 148.19200014818588 Mpc/h_0
# 	 comoving s_max = 571.7022420258767 Mpc/h_0
# 	 comoving s_eff = 435.3747095691862 Mpc/h_0
# 	 comoving z_eff = 0.15045636096027523 
# 	 Volume of the survey V_survey = 3.845366167993746e8
# 	 σ_0 = 15.593462966741178
# 	 σ_1 = 15.074895881392285
# 	 σ_2 = 100.85852368830221
# 	 σ_3 = 3735.1227501923527
# 
# computational time needed (in s) : 6.1676
# kwards passed: 
# 		use_windows = false
# 		N_χs = 50
# 		enhancer = 1.0e10
# 		μ_rtol = 0.001
# 		N_μs = 30
# 
# s [Mpc/h_0] 	 	 xi
0.1 	 -3.4918690960404973e-10
0.10974987654930562 	 -3.4918691961379246e-10
0.12045035402587821 	 -3.4918693167062156e-10
0.1321941148466029 	 -3.4918694619319847e-10
0.14508287784959398 	 -3.491869636858074e-10
0.1592282793341092 	 -3.4918698475586744e-10
0.17475284000076838 	 -3.491870101350232e-10
0.19179102616724888 	 -3.4918704070454706e-10
0.21049041445120203 	 -3.491870775259325e-10
0.23101297000831597 	 -3.491871218777367e-10
0.2535364493970112 	 -3.4918717529995155e-10
0.2782559402207124 	 -3.491872396474383e-10
0.30538555088334157 	 -3.4918731715430396e-10
0.3351602650938842 	 -3.491874105114394e-10
0.3678379771828633 	 -3.4918752295992125e-10
0.40370172585965547 	 -3.49187658403502e-10
0.44306214575838804 	 -3.4918782154413e-10
0.4862601580065353 	 -3.491880180450714e-10
0.533669923120631 	 -3.4918825472723703e-10
0.5857020818056666 	 -3.491885398054735e-10
0.6428073117284321 	 -3.4918888317318693e-10
0.7054802310718643 	 -3.4918929674508544e-10
0.7742636826811271 	 -3.4918979486999903e-10
0.8497534359086443 	 -3.491903948281343e-10
0.9326033468832199 	 -3.4919111742945367e-10
1.0235310218990261 	 -3.491919907154596e-10
1.1233240329780274 	 -3.4919303950671406e-10
1.2328467394420661 	 -3.4919430263174e-10
1.353047774579807 	 -3.4919582385870567e-10
1.484968262254465 	 -3.4919765587997613e-10
1.6297508346206442 	 -3.49199862128097e-10
1.788649529057435 	 -3.4920251896503896e-10
1.9630406500402708 	 -3.492057183157055e-10
2.154434690031884 	 -3.492095708217388e-10
2.3644894126454075 	 -3.492142096427944e-10
2.595024211399736 	 -3.4921979501988385e-10
2.8480358684358014 	 -3.492265197470382e-10
3.1257158496882362 	 -3.492346157480019e-10
3.4304692863149184 	 -3.4924436196996316e-10
3.7649358067924683 	 -3.4925609386997483e-10
4.132012400115337 	 -3.4927021479934077e-10
4.534878508128582 	 -3.492872096061249e-10
4.977023564332112 	 -3.493076609834512e-10
5.462277217684341 	 -3.493322689933123e-10
5.99484250318941 	 -3.4936187439893283e-10
6.579332246575681 	 -3.493974864598882e-10
7.220809018385464 	 -3.4944031613913466e-10
7.924828983539173 	 -3.4949181565733217e-10
8.697490026177835 	 -3.495537253096079e-10
9.54548456661834 	 -3.4962812899046003e-10
10.476157527896646 	 -3.4971751977824583e-10
11.497569953977356 	 -3.4982487723174197e-10
12.618568830660204 	 -3.499537585007314e-10
13.848863713938732 	 -3.5010840530851125e-10
15.199110829529339 	 -3.5029387001529324e-10
16.68100537200059 	 -3.5051616224616946e-10
18.30738280295368 	 -3.5078242017961563e-10
20.09233002565047 	 -3.511011083478058e-10
22.051307399030456 	 -3.5148224469907064e-10
24.20128264794382 	 -3.5193766107951335e-10
26.560877829466868 	 -3.524813008965289e-10
29.150530628251772 	 -3.531295585704918e-10
31.992671377973828 	 -3.539016581223052e-10
35.11191734215131 	 -3.548200788488716e-10
38.53528593710529 	 -3.5591103251724487e-10
42.29242874389499 	 -3.572049869751669e-10
46.4158883361278 	 -3.587372411747601e-10
50.94138014816378 	 -3.605485736654559e-10
55.90810182512222 	 -3.626858555230028e-10
61.35907273413173 	 -3.652027187321557e-10
67.34150657750821 	 -3.681603385018616e-10
73.90722033525779 	 -3.716281506025578e-10
81.11308307896873 	 -3.756846506745421e-10
89.02150854450383 	 -3.804179503987238e-10
97.70099572992251 	 -3.859267031738777e-10
107.22672220103232 	 -3.9232052344842854e-10
117.68119524349979 	 -3.997202393860368e-10
129.1549665014884 	 -4.082581710288235e-10
141.74741629268047 	 -4.180778390334712e-10
155.56761439304722 	 -4.2933392315255033e-10
170.73526474706904 	 -4.4219162690764724e-10
187.3817422860385 	 -4.5682806976701543e-10
205.65123083486515 	 -4.734321253994085e-10
225.7019719633919 	 -4.922054625584685e-10
247.70763559917114 	 -5.13362781491537e-10
271.85882427329403 	 -5.371346760605152e-10
298.364724028334 	 -5.637698620461503e-10
327.45491628777285 	 -5.935317983406305e-10
359.38136638046257 	 -6.267330130309507e-10
394.4206059437656 	 -6.636308465344999e-10
432.8761281083057 	 -7.047498662629809e-10
475.0810162102798 	 -7.501825406456147e-10
521.4008287999684 	 -8.005650873521329e-10
572.236765935022 	 -8.56059559000569e-10
628.0291441834253 	 -9.170516011936385e-10
689.2612104349695 	 -9.839313170346347e-10
756.463327554629 	 -1.0571285504204853e-9
830.2175681319744 	 -1.1356301688566245e-9
911.1627561154896 	 -1.2164052824997392e-9
1000.0 	 -1.2980361530135125e-9
