# This is an integration map on mu of the ξ multipole auto_lensing GR effect.
# The following parameters were used for this computation: 
# CLASS Power Spectrum input file : "file_pk.txt"
# F window function input file : "../data/F_REFERENCE.txt"
# CLASS Background input file: "../data/WideA_ZA_background.dat"
# 	 z_min = 0.05 	 z_max = 0.2
# 	 k_min = 1.0e-8 	 k_max = 10.0
# 	 h_0 = 0.7 	 Ω_b = 0.0489 	 Ω_cdm = 0.25102 	 Ω_M0 = 0.29992
# 	 comoving s_min = 148.1920001343431 Mpc/h_0
# 	 comoving s_max = 571.7022420911966 Mpc/h_0
# 	 comoving s_eff = 435.37470960794167 Mpc/h_0
# 	 comoving z_eff = 0.15045636097417317 
# 	 Volume of the survey V_survey = 3.845366169354268e8
# 	 σ_0 = 15.593462966741178
# 	 σ_1 = 15.074895881392285
# 	 σ_2 = 100.85852368830221
# 	 σ_3 = 15.593462966741178
# 
# computational time needed (in s) : 33.8604
# kwards passed: 
# 		use_windows = false
# 		N_χs = 50
# 		Δχ_min = 1.0e-6
# 		enhancer = 1.0e10
# 		use_my = false
# 		μ_atol = 1.0e-5
# 		μ_rtol = 0.01
# 
# s [Mpc/h_0] 	 	 xi
0.1 	 2.0669720052485964e-6
0.10974987654930562 	 2.0262139300600916e-6
0.12045035402587821 	 1.913650008316057e-6
0.1321941148466029 	 1.7603984611804175e-6
0.14508287784959398 	 1.6710907163718417e-6
0.1592282793341092 	 1.5658348212780779e-6
0.17475284000076838 	 1.4709674775269708e-6
0.19179102616724888 	 1.371954394864785e-6
0.21049041445120203 	 1.2967852173691237e-6
0.23101297000831597 	 1.223479604747355e-6
0.2535364493970112 	 1.153654334840528e-6
0.2782559402207124 	 1.084725646585959e-6
0.30538555088334157 	 1.022646123965729e-6
0.3351602650938842 	 9.645037869278674e-7
0.3678379771828633 	 9.102344080924262e-7
0.40370172585965547 	 8.5906537235852e-7
0.44306214575838804 	 8.112108043064145e-7
0.4862601580065353 	 7.663498276698447e-7
0.533669923120631 	 7.24599866893586e-7
0.5857020818056666 	 6.852637248346779e-7
0.6428073117284321 	 6.484370513796218e-7
0.7054802310718643 	 6.139586634704534e-7
0.7742636826811271 	 5.81625237680935e-7
0.8497534359086443 	 5.513127532592037e-7
0.9326033468832199 	 5.2293067622854e-7
1.0235310218990261 	 4.963202083000365e-7
1.1233240329780274 	 4.713601231295992e-7
1.2328467394420661 	 4.479357820223926e-7
1.353047774579807 	 4.259707892308122e-7
1.484968262254465 	 4.0539949319162525e-7
1.6297508346206442 	 3.861429190531002e-7
1.788649529057435 	 3.681129792128101e-7
1.9630406500402708 	 3.512120167827379e-7
2.154434690031884 	 3.353397154029129e-7
2.3644894126454075 	 3.2040807370463786e-7
2.595024211399736 	 3.063406045666586e-7
2.8480358684358014 	 2.9306621955162747e-7
3.1257158496882362 	 2.804485434774786e-7
3.4304692863149184 	 2.685430556964479e-7
3.7649358067924683 	 2.5719207884839853e-7
4.132012400115337 	 2.4638620909415733e-7
4.534878508128582 	 2.3609475745107698e-7
4.977023564332112 	 2.2626682809517615e-7
5.462277217684341 	 2.168605574896074e-7
5.99484250318941 	 2.0782002158955723e-7
6.579332246575681 	 1.9907409009328843e-7
7.220809018385464 	 1.9058277853008714e-7
7.924828983539173 	 1.8230759954061996e-7
8.697490026177835 	 1.7415142122687793e-7
9.54548456661834 	 1.6609250396663895e-7
10.476157527896646 	 1.5807601605984317e-7
11.497569953977356 	 1.501194906771334e-7
12.618568830660204 	 1.4221926729625973e-7
13.848863713938732 	 1.344144277638105e-7
15.199110829529339 	 1.2671561312908963e-7
16.68100537200059 	 1.191407513934304e-7
18.30738280295368 	 1.1171650889651956e-7
20.09233002565047 	 1.044502026406612e-7
22.051307399030456 	 9.736318980557745e-8
24.20128264794382 	 9.048019516354869e-8
26.560877829466868 	 8.382056820386401e-8
29.150530628251772 	 7.745333193811973e-8
31.992671377973828 	 7.128982419085979e-8
35.11191734215131 	 6.53952932607308e-8
38.53528593710529 	 5.978135501182041e-8
42.29242874389499 	 5.4458115079759816e-8
46.4158883361278 	 4.9433258660239656e-8
50.94138014816378 	 4.471233787906656e-8
55.90810182512222 	 4.031458393400081e-8
61.35907273413173 	 3.6207112570018965e-8
67.34150657750821 	 3.240376027245411e-8
73.90722033525779 	 2.8900036135396306e-8
81.11308307896873 	 2.570184096961268e-8
89.02150854450383 	 2.2775704732168334e-8
97.70099572992251 	 2.0124545738695465e-8
107.22672220103232 	 1.7753470518611762e-8
117.68119524349979 	 1.5626046430882525e-8
129.1549665014884 	 1.3732764041752245e-8
141.74741629268047 	 1.2055125887673859e-8
155.56761439304722 	 1.055825150067152e-8
170.73526474706904 	 9.231352037426566e-9
187.3817422860385 	 8.059637897727268e-9
205.65123083486515 	 7.031345716665788e-9
225.7019719633919 	 6.1336483984940574e-9
247.70763559917114 	 5.356078059427298e-9
271.85882427329403 	 4.6859667585195375e-9
298.364724028334 	 4.110416105490526e-9
327.45491628777285 	 3.616346737183502e-9
359.38136638046257 	 3.1926469231000807e-9
394.4206059437656 	 2.8280457385650145e-9
432.8761281083057 	 2.5097219535382197e-9
475.0810162102798 	 2.239599259705144e-9
521.4008287999684 	 1.9985970616852062e-9
572.236765935022 	 1.78617237459015e-9
628.0291441834253 	 1.5977429389654673e-9
689.2612104349695 	 1.4303577706614386e-9
756.463327554629 	 1.2819594020629289e-9
830.2175681319744 	 1.1483034038028463e-9
911.1627561154896 	 1.0285014779992165e-9
1000.0 	 9.213291159751675e-10
