# This is an integration map on mu of the ξ multipole auto_lensing GR effect.
# The following parameters were used for this computation: 
# CLASS Power Spectrum input file : "file_pk.txt"
# F window function input file : "../data/F_REFERENCE.txt"
# CLASS Background input file: "../data/WideA_ZA_background.dat"
# 	 z_min = 0.05 	 z_max = 0.2
# 	 k_min = 1.0e-8 	 k_max = 10.0
# 	 h_0 = 0.7 	 Ω_b = 0.0489 	 Ω_cdm = 0.25102 	 Ω_M0 = 0.29992
# 	 comoving s_min = 148.19200014818588 Mpc/h_0
# 	 comoving s_max = 571.7022420258767 Mpc/h_0
# 	 comoving s_eff = 435.3747095691862 Mpc/h_0
# 	 comoving z_eff = 0.15045636096027523 
# 	 Volume of the survey V_survey = 3.845366167993746e8
# 	 σ_0 = 15.593462966741178
# 	 σ_1 = 15.074895881392285
# 	 σ_2 = 100.85852368830221
# 	 σ_3 = 3735.1227501923527
# 
# computational time needed (in s) : 60.1475
# kwards passed: 
# 		use_windows = false
# 		N_χs = 50
# 		N_μs = 30
# 		Δχ_min = 0.0001
# 		enhancer = 1.0e10
# 
# s [Mpc/h_0] 	 	 xi
0.1 	 1.1479709534172305e-6
0.10974987654930562 	 1.0499981971015036e-6
0.12045035402587821 	 1.0292439372093546e-6
0.1321941148466029 	 9.933059735347383e-7
0.14508287784959398 	 9.657925695486677e-7
0.1592282793341092 	 9.325323372827928e-7
0.17475284000076838 	 8.99653071278023e-7
0.19179102616724888 	 8.685261861066508e-7
0.21049041445120203 	 8.353889731315767e-7
0.23101297000831597 	 8.056734499337243e-7
0.2535364493970112 	 7.790314865670277e-7
0.2782559402207124 	 7.503134178955991e-7
0.30538555088334157 	 7.242805886484916e-7
0.3351602650938842 	 6.983465071713231e-7
0.3678379771828633 	 6.736941614720674e-7
0.40370172585965547 	 6.494206254846506e-7
0.44306214575838804 	 6.259606413447045e-7
0.4862601580065353 	 6.03194334996138e-7
0.533669923120631 	 5.812788134793985e-7
0.5857020818056666 	 5.600425088702882e-7
0.6428073117284321 	 5.394690043515611e-7
0.7054802310718643 	 5.195457020151355e-7
0.7742636826811271 	 5.002755354624978e-7
0.8497534359086443 	 4.816075196771793e-7
0.9326033468832199 	 4.635559282386427e-7
1.0235310218990261 	 4.459349444759905e-7
1.1233240329780274 	 4.290368881871076e-7
1.2328467394420661 	 4.126839920160168e-7
1.353047774579807 	 3.9686715835409513e-7
1.484968262254465 	 3.815722329408536e-7
1.6297508346206442 	 3.6678656207360366e-7
1.788649529057435 	 3.524964681987762e-7
1.9630406500402708 	 3.3869172911468206e-7
2.154434690031884 	 3.253619159556468e-7
2.3644894126454075 	 3.1249700125994096e-7
2.595024211399736 	 3.0008818615113203e-7
2.8480358684358014 	 2.8812698582816767e-7
3.1257158496882362 	 2.7660461805893644e-7
3.4304692863149184 	 2.655120684566052e-7
3.7649358067924683 	 2.548389379797094e-7
4.132012400115337 	 2.445726350912607e-7
4.534878508128582 	 2.3469723715060694e-7
4.977023564332112 	 2.2519215005015903e-7
5.462277217684341 	 2.1603082135328013e-7
5.99484250318941 	 2.0717966153757229e-7
6.579332246575681 	 1.9859769235753262e-7
7.220809018385464 	 1.9023733306456347e-7
7.924828983539173 	 1.8204682388246892e-7
8.697490026177835 	 1.7397359787021676e-7
9.54548456661834 	 1.6596983374782239e-7
10.476157527896646 	 1.580076774507932e-7
11.497569953977356 	 1.5008697299171972e-7
12.618568830660204 	 1.4222421693415005e-7
13.848863713938732 	 1.3444206671671042e-7
15.199110829529339 	 1.2676406491103807e-7
16.68100537200059 	 1.1921162790464097e-7
18.30738280295368 	 1.1180150305797195e-7
20.09233002565047 	 1.0454856888705322e-7
22.051307399030456 	 9.747411336179192e-8
24.20128264794382 	 9.06030459435053e-8
26.560877829466868 	 8.395563186183703e-8
29.150530628251772 	 7.759585058948418e-8
31.992671377973828 	 7.144249946470787e-8
35.11191734215131 	 6.555846791393133e-8
38.53528593710529 	 5.995549075111146e-8
42.29242874389499 	 5.4642603947949714e-8
46.4158883361278 	 4.962798400056485e-8
50.94138014816378 	 4.491685322420447e-8
55.90810182512222 	 4.052866028063279e-8
61.35907273413173 	 3.643065623342479e-8
67.34150657750821 	 3.26370608763695e-8
73.90722033525779 	 2.9142007079019392e-8
81.11308307896873 	 2.5952863374174432e-8
89.02150854450383 	 2.303471875261311e-8
97.70099572992251 	 2.039178041574739e-8
107.22672220103232 	 1.8027639892121638e-8
117.68119524349979 	 1.5907671413082176e-8
129.1549665014884 	 1.4020797783065507e-8
141.74741629268047 	 1.2342467626122042e-8
155.56761439304722 	 1.0856789645503285e-8
170.73526474706904 	 9.53398226674179e-9
187.3817422860385 	 8.365654195022521e-9
205.65123083486515 	 7.339680263302209e-9
225.7019719633919 	 6.443252924732875e-9
247.70763559917114 	 5.666099316619709e-9
271.85882427329403 	 4.9951656143074586e-9
298.364724028334 	 4.4174389521129684e-9
327.45491628777285 	 3.920008060497517e-9
359.38136638046257 	 3.491855439916412e-9
394.4206059437656 	 3.1216173118389412e-9
432.8761281083057 	 2.79664088916796e-9
475.0810162102798 	 2.5182126715040462e-9
521.4008287999684 	 2.272258433718588e-9
572.236765935022 	 2.053111603886453e-9
628.0291441834253 	 1.8581875695672817e-9
689.2612104349695 	 1.6844642492616459e-9
756.463327554629 	 1.5290212105131539e-9
830.2175681319744 	 1.3896685234796097e-9
911.1627561154896 	 1.2644202738977812e-9
1000.0 	 1.1532461343878675e-9
