# This is an integration map on mu of the ξ multipole auto_lensing GR effect.
# The following parameters were used for this computation: 
# CLASS Power Spectrum input file : "file_pk.txt"
# F window function input file : "../data/F_REFERENCE.txt"
# CLASS Background input file: "../data/WideA_ZA_background.dat"
# 	 z_min = 0.05 	 z_max = 0.2
# 	 k_min = 1.0e-8 	 k_max = 10.0
# 	 h_0 = 0.7 	 Ω_b = 0.0489 	 Ω_cdm = 0.25102 	 Ω_M0 = 0.29992
# 	 comoving s_min = 148.19200014818588 Mpc/h_0
# 	 comoving s_max = 571.7022420258767 Mpc/h_0
# 	 comoving s_eff = 435.3747095691862 Mpc/h_0
# 	 comoving z_eff = 0.15045636096027523 
# 	 Volume of the survey V_survey = 3.845366167993746e8
# 	 σ_0 = 15.593462966741178
# 	 σ_1 = 15.074895881392285
# 	 σ_2 = 100.85852368830221
# 	 σ_3 = 3735.1227501923527
# 
# computational time needed (in s) : 62.5372
# kwards passed: 
# 		use_windows = false
# 		N_χs = 50
# 		N_μs = 50
# 		Δχ_min = 0.0001
# 		enhancer = 1.0e10
# 		use_my = false
# 
# s [Mpc/h_0] 	 	 xi
0.1 	 1.1413885341248972e-6
0.10974987654930562 	 1.0912766115019333e-6
0.12045035402587821 	 1.0259862209239207e-6
0.1321941148466029 	 9.909642210899649e-7
0.14508287784959398 	 9.719036571669201e-7
0.1592282793341092 	 9.237914866035517e-7
0.17475284000076838 	 8.950697317824861e-7
0.19179102616724888 	 8.642169358956004e-7
0.21049041445120203 	 8.34657564298378e-7
0.23101297000831597 	 8.052885925595833e-7
0.2535364493970112 	 7.778927095254258e-7
0.2782559402207124 	 7.497671049373212e-7
0.30538555088334157 	 7.232942870037974e-7
0.3351602650938842 	 6.975208448132446e-7
0.3678379771828633 	 6.726787212957425e-7
0.40370172585965547 	 6.484882293229364e-7
0.44306214575838804 	 6.250736745747091e-7
0.4862601580065353 	 6.023475376190293e-7
0.533669923120631 	 5.805189161518813e-7
0.5857020818056666 	 5.592318927790136e-7
0.6428073117284321 	 5.386756814346862e-7
0.7054802310718643 	 5.187809000940776e-7
0.7742636826811271 	 4.995141492673503e-7
0.8497534359086443 	 4.808679613472379e-7
0.9326033468832199 	 4.628260174409057e-7
1.0235310218990261 	 4.453101385853177e-7
1.1233240329780274 	 4.284207135423435e-7
1.2328467394420661 	 4.120761606553124e-7
1.353047774579807 	 3.962670249830333e-7
1.484968262254465 	 3.809798223193112e-7
1.6297508346206442 	 3.662017203905649e-7
1.788649529057435 	 3.5191888260619354e-7
1.9630406500402708 	 3.381211348209693e-7
2.154434690031884 	 3.2479804241575886e-7
2.3644894126454075 	 3.119397560308456e-7
2.595024211399736 	 2.995373451962968e-7
2.8480358684358014 	 2.875823289350928e-7
3.1257158496882362 	 2.7606595266959775e-7
3.4304692863149184 	 2.649792028432419e-7
3.7649358067924683 	 2.543116834414121e-7
4.132012400115337 	 2.44050815254562e-7
4.534878508128582 	 2.341806776522652e-7
4.977023564332112 	 2.2468068910660022e-7
5.462277217684341 	 2.155242948357335e-7
5.99484250318941 	 2.0667791506327035e-7
6.579332246575681 	 1.9810057535070105e-7
7.220809018385464 	 1.8974469968637423e-7
7.924828983539173 	 1.81558533268237e-7
8.697490026177835 	 1.7348951368764256e-7
9.54548456661834 	 1.6548982400351074e-7
10.476157527896646 	 1.575316176721684e-7
11.497569953977356 	 1.4961473922717073e-7
12.618568830660204 	 1.4175569135744966e-7
13.848863713938732 	 1.3397713622157884e-7
15.199110829529339 	 1.2630262072546102e-7
16.68100537200059 	 1.1875356704085698e-7
18.30738280295368 	 1.113467245797493e-7
20.09233002565047 	 1.0409697730312917e-7
22.051307399030456 	 9.702561879769382e-8
24.20128264794382 	 9.015756287070562e-8
26.560877829466868 	 8.351307966345271e-8
29.150530628251772 	 7.715615469978905e-8
31.992671377973828 	 7.100559100624349e-8
35.11191734215131 	 6.512428473518359e-8
38.53528593710529 	 5.952397724574317e-8
42.29242874389499 	 5.4213712544498824e-8
46.4158883361278 	 4.92016758104015e-8
50.94138014816378 	 4.44930991558473e-8
55.90810182512222 	 4.0107442383812365e-8
61.35907273413173 	 3.601196942243321e-8
67.34150657750821 	 3.22209146347091e-8
73.90722033525779 	 2.872842799665998e-8
81.11308307896873 	 2.554189771598336e-8
89.02150854450383 	 2.2626435722352612e-8
97.70099572992251 	 1.9986275873726108e-8
107.22672220103232 	 1.7625040614814676e-8
117.68119524349979 	 1.5508139941893266e-8
129.1549665014884 	 1.3624537679968441e-8
141.74741629268047 	 1.1955573019721297e-8
155.56761439304722 	 1.0467874936150717e-8
170.73526474706904 	 9.149250190154448e-9
187.3817422860385 	 7.985522448337662e-9
205.65123083486515 	 6.964625258301838e-9
225.7019719633919 	 6.073804833727951e-9
247.70763559917114 	 5.302838405289963e-9
271.85882427329403 	 4.638752422063395e-9
298.364724028334 	 4.0685804029312875e-9
327.45491628777285 	 3.57942720772191e-9
359.38136638046257 	 3.1602425781814275e-9
394.4206059437656 	 2.7995338401789348e-9
432.8761281083057 	 2.4843804373466908e-9
475.0810162102798 	 2.217627359272012e-9
521.4008287999684 	 1.979278184264681e-9
572.236765935022 	 1.7692740245586703e-9
628.0291441834253 	 1.5830652031332943e-9
689.2612104349695 	 1.4176022000859993e-9
756.463327554629 	 1.2709570701569148e-9
830.2175681319744 	 1.1389702531724653e-9
911.1627561154896 	 1.020577093982902e-9
1000.0 	 9.147277363021953e-10
