###############
#    GaPSE    #
############### 
#
# Power Spectrum Multipole computation of the file: "Effective_fNL_z115_files/xi_matter.txt"
#
# For this PS_multipole computation we set: 
# 	 #points used in Fourier transform N = 1018
# 	 multipole degree in consideration L = 0
# computational time needed (in s) : 2.0145
# kwards passed to "print_PS_multipole": 
# 		ν = 1.5
# 		cut_first_n = 6
# 		n_extrap_high = 1
# 		twofast = false
# 		n_pad = 500
# 		n_extrap_low = 1
# 
# k [h_0/Mpc] 	 	  P [(Mpc/h_0)^3]
0.00016546497792558568 	 6546.13687778468
0.00016725529756620084 	 6536.32662719059
0.000169064988341758 	 6526.316932744498
0.00017089425984659993 	 6516.1153563128
0.0001727433239428666 	 6505.707568062083
0.00017461239478503083 	 6495.09758643004
0.00017650168884470236 	 6484.2790189706275
0.00017841142493569878 	 6473.247798758486
0.0001803418242393881 	 6462.0010609929195
0.00018229311033030545 	 6450.537210025416
0.00018426550920204704 	 6438.846403515157
0.0001862592492934438 	 6426.934046341598
0.00018827456151502013 	 6414.787116870748
0.00019031167927573524 	 6402.408364035675
0.00019237083851001764 	 6389.791433154609
0.00019445227770508998 	 6376.931982182192
0.00019655623792859018 	 6363.827041993134
0.00019868296285649147 	 6350.474065732778
0.00020083269880132422 	 6336.864224942621
0.00020300569474070303 	 6323.001149698459
0.00020520220234616413 	 6308.872958332555
0.00020742247601231146 	 6294.4813382845305
0.00020966677288628124 	 6279.820019650017
0.000211935352897524 	 6264.8844969495685
0.00021422847878790896 	 6249.6717206160765
0.00021654641614215434 	 6234.178470046673
0.00021888943341858655 	 6218.396797995509
0.00022125780198023226 	 6202.3289426600595
0.00022365179612624843 	 6185.964088593164
0.00022607169312368887 	 6169.303112281601
0.00022851777323961824 	 6152.33994366343
0.00023099031977357132 	 6135.0700832984985
0.0002334896190903644 	 6117.490514219849
0.00023601596065326138 	 6099.597652581961
0.0002385696370574981 	 6081.384421047264
0.000241150944064172 	 6062.852081071941
0.00024376018063449414 	 6043.990921009037
0.0002463976489644153 	 6024.801325354749
0.0002490636545196258 	 6005.277630103281
0.00025175850607093357 	 5985.415595818577
0.0002544825157300254 	 5965.212460779527
0.0002572359989856152 	 5944.664655698925
0.000260019274739982 	 5923.766100964268
0.00026283266534590745 	 5902.517564015087
0.00026567649664400626 	 5880.910609144696
0.0002685510980004667 	 5858.945547331317
0.0002714568023451966 	 5836.617446791754
0.0002743939462103821 	 5813.9226986326175
0.00027736286976946464 	 5790.85915560875
0.0002803639168765387 	 5767.423745938039
0.00028339743510617587 	 5743.611679524142
0.00028646377579368216 	 5719.4238193978135
0.00028956329407578565 	 5694.853341936031
0.00029269634893177004 	 5669.901038119762
0.0002958633032250499 	 5644.563188379252
0.0002990645237451971 	 5618.837337672827
0.0003023003812504212 	 5592.722481198084
0.00030557125051051005 	 5566.216673761399
0.0003088775103502342 	 5539.316900621973
0.0003122195436932237 	 5512.02485838073
0.00031559773760631433 	 5484.335868702845
0.0003190124833443786 	 5456.251929443152
0.0003224641763956399 	 5427.771203070695
0.000325953216527477 	 5398.893101977949
0.0003294800078327239 	 5369.618494750308
0.00033304495877647076 	 5339.947377827239
0.00033664848224337343 	 5309.8792229009505
0.0003402909955854696 	 5279.4174862315385
0.00034397292067051775 	 5248.560396673111
0.00034769468393085635 	 5217.312094105723
0.00035145671641279247 	 5185.67351551081
0.00035525945382652423 	 5153.646876816774
0.0003591033365966043 	 5121.235882498771
0.00036298880991294787 	 5088.443503938989
0.00036691632378239603 	 5055.272658798318
0.00037088633308083116 	 5021.72970585356
0.0003748992976058617 	 4987.816792512585
0.0003789556821300748 	 4953.541365971642
0.00038305595645486457 	 4918.908270162628
0.000387200595464844 	 4883.9236984984655
0.0003913900791828448 	 4848.595395600153
0.00039562489282551173 	 4812.930569643239
0.0003999055268595024 	 4776.9367928149995
0.00040423247705828776 	 4740.624688613277
0.000408606244559574 	 4704.0015762311805
0.0004130273359233427 	 4667.079595833836
0.00041749626319051984 	 4629.868854369781
0.00042201354394227853 	 4592.380912543696
0.00042657970135998453 	 4554.628971013453
0.0004311952642857891 	 4516.625931044249
0.0004358607672838814 	 4478.38543086295
0.0004405767507023959 	 4439.923890628278
0.00044534376073599726 	 4401.255234132194
0.000450162349489139 	 4362.397831525029
0.0004550330750400065 	 4323.368552036209
0.00045995650150515254 	 4284.185838819567
0.0004649331991048314 	 4244.869873538678
0.00046996374422904346 	 4205.440788655644
0.0004750487195042868 	 4165.919774028894
0.0004801887138610389 	 4126.330609949189
0.0004853843226019639 	 4086.695281065719
0.0004906361474708603 	 4047.039906786195
0.0004959447967223525 	 4007.3895754734726
0.0005013108851923382 	 3967.77105116443
0.000506735034369196 	 3928.212909893625
0.0005122178724657688 	 3888.7438984487603
0.0005177600344921161 	 3849.3940587267302
0.0005233621623290635 	 3810.1958500976134
0.0005290249048025429 	 3771.180498021881
0.0005347489177587379 	 3732.3830528291696
0.0005405348641400424 	 3693.837893103758
0.0005463834140618412 	 3655.581098723375
0.0005522952448901212 	 3617.650550527867
0.0005582710413199241 	 3580.0844222681167
0.0005643114954546428 	 3542.9222796405675
0.0005704173068861815 	 3506.2058681868457
0.0005765891827759812 	 3469.9760605547476
0.0005828278379369199 	 3434.277158547188
0.0005891339949161027 	 3399.1529636666664
0.0005955083840785434 	 3364.648841892091
0.0006019517436917549 	 3330.8117752975327
0.0006084648200112559 	 3297.688967546845
0.0006150483673669955 	 3265.3288803885976
0.0006217031482507221 	 3233.7817425640824
0.0006284299334042916 	 3203.0969771488553
0.0006352295019089341 	 3173.3268396063786
0.0006421026412754846 	 3144.5229622921397
0.000649050147535591 	 3116.7381287879753
0.0006560728253339075 	 3090.026263944876
0.0006631714880212914 	 3064.4411287981507
0.000670346957748997 	 3040.037262859453
0.0006776000655638989 	 3016.8702536366727
0.0006849316515047423 	 2994.99454169304
0.0006923425646994328 	 2974.466470635076
0.0006998336634633822 	 2955.3412225088305
0.000707405815398914 	 2937.6743158860236
0.0007150598974957528 	 2921.5215220454625
0.0007227967962325878 	 2906.937625936807
0.0007306174076797478 	 2893.9772508573615
0.0007385226376029806 	 2882.694920528819
0.0007465134015683567 	 2873.1431584702377
0.0007545906250483087 	 2865.375017895923
0.0007627552435288164 	 2859.441340828026
0.0007710082026177528 	 2855.3919985499538
0.0007793504581544062 	 2853.275731145275
0.0007877829763201763 	 2853.1389615271305
0.0007963067337504802 	 2855.0264957392287
0.0008049227176478626 	 2858.9814144610905
0.0008136319258963319 	 2865.0434111888535
0.0008224353671769324 	 2873.2508761343333
0.0008313340610845676 	 2883.6384390987305
0.0008403290382460861 	 2896.2379895850872
0.0008494213404396525 	 2911.078460420845
0.0008586120207153945 	 2928.184707671171
0.0008679021435173711 	 2947.578111040867
0.0008772927848068526 	 2969.2763548369353
0.0008867850321869359 	 2993.2919921614434
0.0008963799850285082 	 3019.634182279787
0.0009060787545975744 	 3048.3065216132504
0.0009158824641839583 	 3079.3079179979763
0.0009257922492314079 	 3112.632381303576
0.0009358092574690887 	 3148.268026886389
0.0009459346490445186 	 3186.197649766698
0.000956169596657931 	 3226.3984981027834
0.0009665152856980953 	 3268.8411099704517
0.0009769729143796054 	 3313.490848105992
0.0009875436938816533 	 3360.306083514901
0.0009982288484883103 	 3409.23905164769
0.0010090296157303123 	 3460.235769321632
0.0010199472465283945 	 3513.235276963034
0.001030983005338167 	 3568.17031926489
0.0010421381702965637 	 3624.967266486136
0.0010534140333698708 	 3683.545333516632
0.001064811900503361 	 3743.81810332462
0.001076333091772543 	 3805.692185199566
0.001087978941536056 	 3869.0682278793633
0.001099750798590204 	 3933.8411274724945
0.0011116500263251734 	 3999.8996650500976
0.00112367800288294 	 4067.127462669683
0.0011358361213168798 	 4135.403232322931
0.001148125789753111 	 4204.600512979795
0.0011605484315535782 	 4274.589379258745
0.001173105485480903 	 4345.235701276979
0.0011857984058650242 	 4416.402476915499
0.001198628662771625 	 4487.950470991699
0.0012115977421723993 	 4559.738366565597
0.0012247071461171529 	 4631.624111256733
0.001237958392907766 	 4703.465598416717
0.0012513530172740407 	 4775.120971684489
0.0012648925705514497 	 4846.4505989324825
0.0012785786208608057 	 4917.316931718288
0.001292412753289888 	 4987.586161586577
0.001306396570077009 	 5057.129250969689
0.0013205316907965912 	 5125.822512748305
0.0013348197525467405 	 5193.549232128593
0.0013492624101388519 	 5260.200625867923
0.001363861336289265 	 5325.676485165797
0.0013786182218129919 	 5389.887181461766
0.001393534775819555 	 5452.753791782491
0.001408612725910915 	 5514.209722661812
0.0014238538183815703 	 5574.201709524908
0.001439259818420804 	 5632.6903345904575
0.0014548325103171268 	 5689.651385667263
0.0014705736976649267 	 5745.076497349984
0.001486485203573359 	 5798.973454506789
0.0015025688708774916 	 5851.367533635272
0.0015188265623517485 	 5902.301102393637
0.0015352601609256368 	 5951.83439715418
0.0015518715699018326 	 6000.045622899155
0.001568662713176617 	 6047.0304954136645
0.0015856355354626948 	 6092.902402347573
0.0016027920025144288 	 6137.791771081886
0.001620134101355508 	 6181.845049108861
0.0016376638405090774 	 6225.224432862403
0.0016553832502303736 	 6268.105975615506
0.0016732943827418448 	 6310.678611357627
0.0016913993124708475 	 6353.142491961176
0.0017097001362899 	 6395.706754896984
0.001728198973759535 	 6438.587789202507
0.0017468979673737858 	 6482.006745776174
0.0017657992828083214 	 6526.186732005125
0.0017849051091712704 	 6571.350653182769
0.001804217659256768 	 6617.717707196559
0.0018237391698012217 	 6665.500762000935
0.0018434719017423743 	 6714.903260449731
0.0018634181404811596 	 6766.115789356348
0.0018835801961463912 	 6819.313305692656
0.0019039604038623174 	 6874.651930238159
0.001924561124019067 	 6932.265785481893
0.001945384742546036 	 6992.264710726469
0.001966433671188202 	 7054.731190592483
0.0019877103477854608 	 7119.718461286065
0.002009217236554966 	 7187.248651839073
0.002030956828376533 	 7257.311099942851
0.002052931641081124 	 7329.861747603591
0.0020751442197424574 	 7404.8226452210365
0.002097597136971771 	 7482.082024449371
0.0021202929932157884 	 7561.495616931033
0.002143234417057878 	 7642.887776123311
0.0021664240655225025 	 7726.054063942242
0.002189864624382944 	 7810.764263678857
0.0022135588084723663 	 7896.765866696377
0.0022375093619982434 	 7983.788759075345
0.002261719058860181 	 8071.5501352627125
0.002286190702971187 	 8159.759963283963
0.0023109271285824237 	 8248.127431692621
0.002335931200611443 	 8336.367006313492
0.0023612058149740135 	 8424.205380846644
0.0023867538989195106 	 8511.388268349798
0.0024125784113699466 	 8597.686903700576
0.0024386823432626654 	 8682.904747758846
0.002465068717896747 	 8766.883365259533
0.0024917405912831545 	 8849.507646291511
0.0025187010524986902 	 8930.710593274034
0.0025459532240437433 	 9010.476397746912
0.0025735002622039446 	 9088.842841578777
0.0026013453574157182 	 9165.902082726207
0.0026294917346357904 	 9241.799710910422
0.0026579426537146956 	 9316.732578952913
0.002686701409774322 	 9390.944605804869
0.0027157713335895636 	 9464.7208966723
0.002745155791974054 	 9538.380582593074
0.002774858188170123 	 9612.267576604272
0.0028048819622429485 	 9686.740481138198
0.002835230591478974 	 9762.161237065664
0.0028659075907886437 	 9838.882839298016
0.0028969165131134903 	 9917.237046177757
0.0029282609498376233 	 9997.52184513186
0.002959944531203696 	 10079.989476840374
0.0029919709267333208 	 10164.835806137142
0.0030243438456520853 	 10252.190764651581
0.0030570670373191436 	 10342.111264797251
0.0030901442916614562 	 10434.576482472625
0.00312357943961273 	 10529.485894748708
0.0031573763535571136 	 10626.660873816258
0.0031915389477776774 	 10725.84942404218
0.00322607117890978 	 10826.734414788361
0.003260977046399287 	 10928.945433968658
0.0032962605929657963 	 11032.073307962683
0.0033319259050708532 	 11135.68759651102
0.003367977113391236 	 11239.355944663004
0.003404418393297356 	 11342.664455002732
0.003441253965336853 	 11445.238576282243
0.0034784880957233937 	 11546.762903205357
0.0035161250968307844 	 11646.99904143231
0.0035541693276924143 	 11745.800602322428
0.003592625194506124 	 11843.123688344363
0.0036314971511444997 	 11939.032597352152
0.0036707896996707227 	 12033.699625366076
0.003710507390859996 	 12127.398479981088
0.003750654824726586 	 12220.491612460022
0.003791236651056602 	 12313.41126612106
0.003832257569946512 	 12406.635201739968
0.0038737223323475137 	 12500.65838909377
0.003915635740615759 	 12595.961703209465
0.003958002649068566 	 12692.98005448611
0.004000827964546627 	 12792.071740569436
0.004044116646982324 	 12893.491197289015
0.004087873709974151 	 12997.36773312096
0.0041321042213673985 	 13103.691806830084
0.004176813303841088 	 13212.310695699909
0.004222006135501286 	 13322.934740935052
0.004267687950480798 	 13435.15408930151
0.00431386403954539 	 13548.465910192579
0.00436053975070654 	 13662.310432688302
0.004407720489840861 	 13776.113449374085
0.004455411721316157 	 13889.33256527987
0.004503618968624325 	 14001.503099028843
0.004552347815021057 	 14112.279795241913
0.0046016039041724965 	 14221.470386124654
0.004651392940808857 	 14329.05693383356
0.004701720691385138 	 14435.202411848335
0.0047525929847489845 	 14540.240532091266
0.00480401571281578 	 14644.648419552308
0.004855994831251018 	 14749.00385296767
0.0049085363601600795 	 14853.929852963327
0.00496164638478547 	 14960.031586309618
0.00501533105621161 	 15067.831773498592
0.005069596592077217 	 15177.711175747112
0.005124449277295435 	 15289.861477798824
0.005179895464781729 	 15404.256689173719
0.005235941576189683 	 15520.647692924653
0.005292594102654719 	 15638.582686615751
0.005349859605545895 	 15757.452720191191
0.005407744717225843 	 15876.558842693952
0.005466256141818884 	 15995.194170318156
0.005525400655987512 	 16112.731237991718
0.005585185109717234 	 16228.703874231036
0.0056456164271099386 	 16342.872107442781
0.005706701607185811 	 16455.259801364966
0.005768447724693949 	 16566.157962724257
0.00583086193093175 	 16676.09029813664
0.005893951454573163 	 16785.74327994998
0.0059577236025058836 	 16895.86845557758
0.006022185760677624 	 17007.169473202077
0.006087345394951543 	 17120.190389758445
0.0061532100519709355 	 17235.222977663765
0.00621978736003324 	 17352.24933597082
0.0062870850299735544 	 17470.932280722664
0.006355110856057672 	 17590.658515532465
0.006423872716884822 	 17710.631322024023
0.006493378576300117 	 17830.000317344533
0.006563636484316931 	 17948.007606190557
0.006634654578049217 	 18064.12493749209
0.0067064410826539606 	 18178.155447203804
0.006779004312283758 	 18290.277646421007
0.006852352671049773 	 18401.018932830237
0.006926494653995059 	 18511.158276954353
0.007001438848078476 	 18621.57263936034
0.007077193933169159 	 18733.05486871721
0.007153768683051841 	 18846.13945658386
0.0072311719664429905 	 18960.974709710386
0.007309412748017994 	 19077.273218267434
0.007388500089449391 	 19194.357589956442
0.007468443150456392 	 19311.29838173453
0.007549251189865752 	 19427.118402128915
0.007630933566684079 	 19541.019247056265
0.007713499741181792 	 19652.57603587987
0.007796959275988773 	 19761.84883312219
0.007881321837201919 	 19869.375953516294
0.007966597195504613 	 19976.042044936774
0.008052795227298362 	 20082.846617694795
0.008139925915846648 	 20190.62909176882
0.008227999352431195 	 20299.823617043916
0.008317025737520679 	 20410.31587972972
0.008407015381952153 	 20521.45130154379
0.008497978708125202 	 20632.203418382825
0.008589926251209083 	 20741.463403025515
0.008682868660362828 	 20848.370167173867
0.008776816699968649 	 20952.579387031445
0.008871781250878622 	 21054.3802695762
0.00896777331167491 	 21154.609960718382
0.009064803999943558 	 21254.379416179407
0.009162884553562126 	 21354.691053936258
0.009262026332001235 	 21456.074275811945
0.009362240817640206 	 21558.370883534408
0.0094635396170969 	 21660.76016954047
0.009565934462571982 	 21762.0317802354
0.009669437213207715 	 21861.02087977457
0.00977405985646148 	 21957.047881827726
0.009879814509494104 	 22050.188278080477
0.009986713420573261 	 22141.250599593313
0.01009476897049203 	 22231.450072292424
0.010203993674002834 	 22321.893713060337
0.010314400181266843 	 22413.085612426792
0.010426001279319084 	 22504.67170801188
0.010538809893549451 	 22595.55676243934
0.010652839089199641 	 22684.366736397184
0.01076810207287637 	 22770.064890577436
0.010884612194080916 	 22852.437935019156
0.011002382946755275 	 22932.205105554545
0.011121427970844928 	 23010.668428999215
0.011241761053878637 	 23089.049280117444
0.011363396132565266 	 23167.833019956848
0.011486347294407931 	 23246.470286672768
0.011610628779335538 	 23323.62207980394
0.011736254981352041 	 23397.852267730508
0.011863240450203521 	 23468.40916982247
0.011991599893063335 	 23535.652644871618
0.012121348176235412 	 23600.850529395433
0.012252500326876066 	 23665.42183672733
0.0123850715347344 	 23730.049975814938
0.012519077153911595 	 23794.210746079338
0.0126545327046391 	 23856.444852633664
0.012791453875076212 	 23915.25030275827
0.012929856523127023 	 23970.046555609253
0.01306975667827708 	 24021.562843318105
0.013211170543449828 	 24071.342208540114
0.013354114496883234 	 24120.649326300965
0.013498605094026662 	 24169.525259736787
0.013644659069458323 	 24216.693045035685
0.013792293338823376 	 24260.44336562928
0.013941525000793117 	 24299.891876817026
0.014092371339045251 	 24335.65490115806
0.014244849824265738 	 24369.366758246466
0.014398978116172113 	 24402.350648486172
0.01455477406555883 	 24434.48440293774
0.01471225571636475 	 24464.230032597
0.014871441307762861 	 24489.880955476256
0.015032349276272776 	 24511.01485957966
0.015194998257895942 	 24528.866454113675
0.015359407090274106 	 24545.20810879746
0.015525594814870956 	 24560.68012150154
0.015693580679177522 	 24574.118114315588
0.015863384138941335 	 24583.59466213356
0.016035024860419824 	 24588.259877252378
0.016208522722657916 	 24589.18274968961
0.016383897819790445 	 24588.264934734634
0.01656117046336939 	 24586.237412236773
0.01674036118471636 	 24581.816528905772
0.0169214907373004 	 24573.0109392941
0.017104580099141672 	 24559.26948621822
0.01728965047524107 	 24542.09894088008
0.017476723300036152 	 24523.342819340956
0.017665820239883584 	 24502.993715946915
0.017856963195568527 	 24479.12509644833
0.018050174304841106 	 24450.157845348793
0.01824547594498043 	 24416.79262673802
0.018442890735386172 	 24381.142189169466
0.01864244154019836 	 24344.010735174714
0.01884415147094542 	 24303.782070928315
0.019048043889220986 	 24258.50089489059
0.019254142409389458 	 24208.502659885784
0.019462470901321045 	 24155.971777159757
0.019673053493156303 	 24101.87105374315
0.019885914574100636 	 24044.513086830495
0.020101078797248928 	 23981.9656832193
0.020318571082440836 	 23914.918480169345
0.02053841661914703 	 23845.675226417174
0.020760640869386452 	 23774.61118463932
0.020985269570675348 	 23699.54388076993
0.021212328739008104 	 23619.190868115107
0.021441844671870408 	 23535.286597750637
0.021673843951284886 	 23449.761702359716
0.02190835344688984 	 23361.494042162038
0.02214540031905116 	 23268.211333944673
0.022385012022008106 	 23170.482972844013
0.02262721630705283 	 23070.78165652738
0.022872041225744582 	 22969.064252622167
0.023119515133158526 	 22862.858908908736
0.02336966669116984 	 22751.92391212678
0.023622524871773153 	 22638.80113866976
0.0238781189604381 	 22523.983164791895
0.02413647855950105 	 22404.988958965147
