###############
#    GaPSE    #
############### 
#
# Power Spectrum Multipole computation of the file: "Effective_fNL_z115_files/xi_ppmatter_L0_noF.txt"
#
# For this PS_multipole computation we set: 
# 	 #points used in Fourier transform N = 994
# 	 multipole degree in consideration L = 0
# computational time needed (in s) : 0.0227
# kwards passed to "print_PS_multipole": 
# 		ν = 1.5
# 		cut_first_n = 6
# 		n_extrap_high = 1
# 		twofast = false
# 		n_pad = 500
# 		n_extrap_low = 1
# 
# k [h_0/Mpc] 	 	  P [(Mpc/h_0)^3]
0.00016369382206909115 	 -1033.3852165882395
0.0001651285040770867 	 -1029.4442194151345
0.00016657576024602523 	 -1025.211942164609
0.0001680357007811803 	 -1021.0230405952221
0.00016950843685371167 	 -1016.702788697777
0.00017099408060912977 	 -1012.3959592220052
0.00017249274517583602 	 -1007.8448616919245
0.00017400454467373695 	 -1003.4797906956086
0.00017552959422293418 	 -998.7351842206358
0.00017706800995249123 	 -994.1871539679179
0.0001786199090092754 	 -989.3708706269231
0.00018018540956687892 	 -984.5729302687654
0.0001817646308346174 	 -979.6452352385182
0.00018335769306660754 	 -974.6999328197386
0.00018496471757092371 	 -969.5386540411853
0.00018658582671883636 	 -964.5011258684455
0.00018822114395412886 	 -959.1283896833648
0.00018987079380249853 	 -953.8974273964773
0.00019153490188103864 	 -948.4149981142475
0.00019321359490780362 	 -942.9271960782365
0.0001949070007114592 	 -937.3075705607131
0.00019661524824101523 	 -931.6431251431222
0.0001983384675756454 	 -925.7815675496789
0.00020007678993459236 	 -919.9906288782345
0.00020183034768715967 	 -913.8976017577613
0.0002035992743627922 	 -907.897839820688
0.0002053837046612427 	 -901.6579463439865
0.00020718377446282988 	 -895.3897336021429
0.00020899962083878516 	 -888.9844794486902
0.00021083138206169034 	 -882.5097743497237
0.00021267919761600636 	 -875.8490839012998
0.00021454320820869587 	 -869.2128693123093
0.00021642355577993622 	 -862.2982940498279
0.00021832038351392877 	 -855.4333578140989
0.00022023383584980201 	 -848.3348134835383
0.00022216405849260988 	 -841.1853363485498
0.0002241111984244278 	 -833.8908305590645
0.00022607540391554362 	 -826.5038710872738
0.0002280568245357492 	 -818.9356325272488
0.0002300556111657293 	 -811.3510070968265
0.00023207191600855068 	 -803.5038147294472
0.0002341058926012531 	 -795.6663762887334
0.00023615769582653912 	 -787.5975660784018
0.00023822748192456924 	 -779.455201389633
0.000240315408504859 	 -771.1573453283793
0.00024242163455827996 	 -762.744932174104
0.0002445463204691682 	 -754.15056890538
0.00024668962802753495 	 -745.5028843876472
0.0002488517204413882 	 -736.6016829643318
0.0002510327623491598 	 -727.6731781327035
0.0002532329198322428 	 -718.5116987563448
0.0002554523604276375 	 -709.2537854089104
0.0002576912531407103 	 -699.8276797448725
0.00025994976845806155 	 -690.2652763818321
0.00026222807836050844 	 -680.5157174910908
0.0002645263563361811 	 -670.6787833321956
0.00026684477739373274 	 -660.5916303653505
0.0002691835180756675 	 -650.4422312026179
0.0002715427564717818 	 -640.0548202836441
0.00027392267223272696 	 -629.547674846872
0.0002763234465836887 	 -618.8576207168616
0.0002787452623381865 	 -608.0095185217046
0.00028118830391199624 	 -596.9652326499773
0.0002836527573371906 	 -585.8016098226192
0.00028613881027630657 	 -574.3861676757901
0.00028864665203663523 	 -562.8751235585958
0.0002911764735846367 	 -551.1179904921901
0.0002937284675604821 	 -539.2173311273405
0.0002963028282927232 	 -527.117267381684
0.0002988997518130888 	 -514.8371796824459
0.0003015194358714131 	 -502.3486900812746
0.0003041620799506937 	 -489.71044112911983
0.00030682788528228115 	 -476.8146477324039
0.00030951705486120405 	 -463.7911319781346
0.0003122297934616243 	 -450.51082395929365
0.00031496630765243165 	 -437.0627423465339
0.00031772680581297315 	 -423.3972614739676
0.0003205114981489204 	 -409.5294943845904
0.00032332059670827767 	 -395.4385228627717
0.00032615431539752645 	 -381.16857439647976
0.00032901286999791594 	 -366.6319761219157
0.0003318964781818935 	 -351.93659812482423
0.00033480535952967955 	 -336.97156361525356
0.00033773973554598993 	 -321.8142089711831
0.0003406998296769003 	 -306.42031506121344
0.00034368586732686304 	 -290.8016832368022
0.0003466980758758703 	 -274.9430883286592
0.0003497366846967692 	 -258.8773855857477
0.000352801925172727 	 -242.5333043229291
0.00035589403071485226 	 -226.00046367159658
0.0003590132367799664 	 -209.18348783714353
0.0003621597808885343 	 -192.14964101437513
0.0003653339026427511 	 -174.85943056982754
0.0003685358437447865 	 -157.32210803741822
0.0003717658480151917 	 -139.52679451228144
0.0003750241614114632 	 -121.49742959971034
0.0003783110320467737 	 -103.17615011508342
0.000381626710208865 	 -84.63741738234003
0.000384971448379106 	 -65.79911657247258
0.0003883455012517207 	 -46.71984212184414
0.0003917491257531799 	 -27.36428615541116
0.0003951825810617673 	 -7.739772474225334
0.0003986461286273147 	 12.161244278493372
0.0004021400321911114 	 32.321746765117304
0.0004056645578059862 	 52.78859922974849
0.0004092199738565692 	 73.49989708965583
0.0004128065510797257 	 94.5263554995344
0.000416424562585174 	 115.81681421288778
0.00042007428387628174 	 137.40282115089033
0.00042375599287104444 	 159.27846134140447
0.00042746996992324977 	 181.44868902788843
0.00043121649784382346 	 203.9017825071482
0.00043499586192236684 	 226.67553329017665
0.0004388083499488798 	 249.7183955874283
0.0004426542522356751 	 273.0912225131782
0.0004465338616394876 	 296.74919176280014
0.0004504474735837707 	 320.7204160229093
0.00045439538608119486 	 344.999943543608
0.0004583778997563398 	 369.5906667190382
0.0004623953178685857 	 394.48482063876475
0.00046644794633520826 	 419.7126556892123
0.00047053609375467007 	 445.2311157118058
0.0004746600714301221 	 471.09245920703233
0.0004788201933931077 	 497.2572207535469
0.0004830167764274759 	 523.7503193076806
0.00048725014009350326 	 550.5673764017718
0.0004915206067522291 	 577.7095824630044
0.0004958285015900005 	 605.1720217279629
0.0005001741526432352 	 632.978613424579
0.0005045578908234018 	 661.0931981413821
0.0005089800499422163 	 689.560479975826
0.0005134409667370638 	 718.3454714808001
0.0005179409808966366 	 747.4700752749912
0.0005224804350868035 	 776.9301414929122
0.000527059674976702 	 806.7253912984162
0.0005316790492650599 	 836.852840802303
0.0005363389097067496 	 867.3310341239567
0.0005410396111395712 	 898.1293499143451
0.0005457815115112739 	 929.2857981224347
0.0005505649719068125 	 960.7690881820071
0.0005553903565758435 	 992.598239951985
0.0005602580329604612 	 1024.7690352778968
0.0005651683717231794 	 1057.279872318021
0.0005701217467751539 	 1090.1289487087956
0.0005751185353046567 	 1123.3301968936833
0.0005801591178057977 	 1156.8573886547256
0.0005852438781074977 	 1190.7425657751169
0.0005903732034027185 	 1224.9574567780237
0.0005955474842779436 	 1259.5183184811783
0.000600767114742922 	 1294.4206264209113
0.0006060324922606714 	 1329.661559389906
0.0006113440177777432 	 1365.2399066990738
0.000616702095754756 	 1401.1656236557196
0.0006221071341971907 	 1437.4159358240754
0.0006275595446864618 	 1474.0175612211099
0.0006330597424112576 	 1510.9446902277025
0.0006386081461991556 	 1548.210958242147
0.000644205178548517 	 1585.811380648431
0.0006498512656606564 	 1623.7420271051699
0.0006555468374722973 	 1662.0018574708206
0.0006612923276883112 	 1700.597420969579
0.0006670881738147428 	 1739.5086732982793
0.0006729348171921243 	 1778.75762784112
0.0006788327030290854 	 1818.3205296184212
0.0006847822804362508 	 1858.2086016110516
0.0006907840024604417 	 1898.4163630209616
0.0006968383261191736 	 1938.9389464130782
0.0007029457124354565 	 1979.7752528820888
0.0007091066264729032 	 2020.929001609233
0.0007153215373711392 	 2062.3823919617475
0.0007215909183815291 	 2104.1533887215196
0.0007279152469032128 	 2146.2200714583946
0.0007342950045194579 	 2188.591576581049
0.0007407306770343342 	 2231.262052631466
0.0007472227545097013 	 2274.225985235162
0.0007537717313025303 	 2317.4822099919897
0.0007603781061025455 	 2361.0322648167275
0.0007670423819701992 	 2404.860370475624
0.0007737650663749785 	 2448.9811963949855
0.0007805466712340495 	 2493.3746624883565
0.0007873877129512358 	 2538.048310201886
0.0007942887124563429 	 2582.9962441648086
0.0008012501952448266 	 2628.2127618622876
0.0008082726914178059 	 2673.696876866025
0.0008153567357224334 	 2719.4487226601664
0.0008225028675926102 	 2765.454605570408
0.0008297116311900647 	 2811.726796340858
0.00083698357544579 	 2858.2473121229077
0.0008443192541018415 	 2905.0227873181298
0.0008517192257535075 	 2952.047833400011
0.0008591840538918396 	 2999.3172147702226
0.0008667143069465641 	 3046.8306234392057
0.0008743105583293667 	 3094.587719248342
0.0008819733864775548 	 3142.577237670344
0.0008897033748981086 	 3190.8101021260604
0.0008975011122121074 	 3239.2709259026333
0.0009053671921995564 	 3287.966312538052
0.0009133022138446001 	 3336.8921348601366
0.0009213067813811337 	 3386.0444543984863
0.0009293815043388136 	 3435.424357142712
0.0009375269975894749 	 3485.03208353925
0.0009457438813939474 	 3534.859360795188
0.0009540327814492903 	 3584.9169188503565
0.0009623943289364371 	 3635.192632930612
0.0009708291605682571 	 3685.694061490913
0.0009793379186380446 	 3736.4192043917174
0.0009879212510684205 	 3787.3663273486054
0.0009965798114606758 	 3838.538719621817
0.0010053142591445398 	 3889.938261943059
0.0010141252592283862 	 3941.560305831366
0.0010230134826498829 	 3993.416499547172
0.0010319796062270767 	 4045.498643818651
0.001041024312709936 	 4097.816169563532
0.0010501482908323388 	 4150.369986397798
0.0010593522353645188 	 4203.161343665007
0.0010686368471659689 	 4256.196410882506
0.0010780028332388154 	 4309.479547013028
0.001087450906781647 	 4363.010173808338
0.0010969817872438282 	 4416.801670677719
0.001106596200380283 	 4470.850145219118
0.0011162948783067568 	 4525.167462324037
0.0011260785595555722 	 4579.757837950053
0.001135947989131858 	 4634.625844900783
0.0011459039185702845 	 4689.780747647163
0.0011559471059922905 	 4745.2296693759345
0.0011660783161638111 	 4800.976010207735
0.0011762983205535179 	 4857.0350453084175
0.0011866078973915566 	 4913.406925510508
0.0011970078317288131 	 4970.105790973531
0.0012074989154966921 	 5027.138804489234
0.0012180819475674188 	 5084.513394142051
0.0012287577338148776 	 5142.24129844342
0.0012395270871759685 	 5200.331777487115
0.0012503908277125171 	 5258.791213100824
0.0012613497826737168 	 5317.635945215928
0.0012724047865591247 	 5376.868915428117
0.001283556681182204 	 5436.505334052131
0.0012948063157344313 	 5496.553886535121
0.0013061545468499535 	 5557.023294409869
0.0013176022386708229 	 5617.926049321665
0.0013291502629127997 	 5679.271779342314
0.0013407994989317283 	 5741.067744157568
0.0013525508337905046 	 5803.3293642351755
0.001364405162326615 	 5866.060009722684
0.001376363387220283 	 5929.273639009506
0.0013884264190632033 	 5992.977950339338
0.0014005951764278805 	 6057.180339294635
0.001412870585937583 	 6121.891323373817
0.0014252535823368925 	 6187.11815254819
0.0014377451085628907 	 6252.8659795786925
0.0014503461158169592 	 6319.146475093647
0.001463057563637211 	 6385.960345959568
0.0014758804199715566 	 6453.31732398399
0.0014888156612514164 	 6521.221072386319
0.0015018642724660648 	 6589.674621373508
0.0015150272472376413 	 6658.6835063085155
0.001528305587896811 	 6728.249697962376
0.0015417003055590872 	 6798.3732869421065
0.0015552124202018337 	 6869.059528375553
0.0015688429607419222 	 6940.30374448085
0.0015825929651140903 	 7012.10900813052
0.001596463480349975 	 7084.472647140702
0.0016104555626578405 	 7157.391239211507
0.0016245702775030126 	 7230.863501503721
0.001638808699689002 	 7304.884602729795
0.0016531719134393538 	 7379.448242562623
0.0016676610124802078 	 7454.552421462455
0.001682277100123582 	 7530.186434241759
0.0016970212893513926 	 7606.3465528319675
0.0017118947029001964 	 7683.023987461208
0.0017268984733466901 	 7760.209509647576
0.0017420337431939528 	 7837.896125400385
0.0017573016649584444 	 7916.073804129669
0.0017727034012577662 	 7994.731849430899
0.0017882401248991969 	 8073.863626620424
0.0018039130189689912 	 8153.455376828899
0.0018197232769224733 	 8233.50014251596
0.0018356721026749167 	 8313.987033322353
0.0018517607106932157 	 8394.905506959523
0.0018679903260883726 	 8476.247824373047
0.0018843621847087768 	 8558.00417903756
0.0019008775332343174 	 8640.165236547993
0.001917537629271315 	 8722.725970582604
0.0019343437414482824 	 8805.676014487117
0.0019512971495125363 	 8889.011992399455
0.001968399144427635 	 8972.727899736698
0.00198565102847169 	 9056.819011554759
0.0020030541153365313 	 9141.284064495667
0.0020206097302277386 	 9226.1207051273
0.002038319209965554 	 9311.328041221594
0.002056183903086685 	 9396.909652559334
0.0020742051699469788 	 9482.865178914453
0.0020923843828250205 	 9569.201146135383
0.002110722926026626 	 9655.922242544448
0.0021292221959902514 	 9743.034783914929
0.0021478836013933376 	 9830.54853775467
0.0021667085632595656 	 9918.472381830521
0.002185698515067071 	 10006.816714567378
0.0022048549028576 	 10095.595680230384
0.002224179185346618 	 10184.81973094923
0.002243672834034399 	 10274.505037940702
0.0022633373333180613 	 10364.665495156676
0.00228317418060461 	 10455.315718918766
0.002303184886424961 	 10546.472498099673
0.0023233709745489597 	 10638.150633184887
0.002343733982101423 	 10730.365166365344
0.0023642754596791744 	 10823.132955073439
0.0023849969714691273 	 10916.466101409456
0.0024059000953673914 	 11010.38016537321
0.0024269864230994274 	 11104.88689852134
0.0024482575603412484 	 11199.996925931093
0.0024697151268417003 	 11295.720988294055
0.002491360756545787 	 11392.066119356286
0.0025131960977191016 	 11489.037862249123
0.002535222813073334 	 11586.641504132987
0.002557442579892882 	 11684.876481549138
0.002579857090162582 	 11783.743782709553
0.002602468050696534 	 11883.239600314984
0.002625277183268084 	 11983.358001214181
0.0026482862247409274 	 12084.09226443237
0.002671496927201367 	 12185.431665022881
0.002694911058091741 	 12287.363931773216
0.002718530400344991 	 12389.876483174488
0.0027423567525204427 	 12492.951935753948
0.0027663919289407576 	 12596.575020976414
0.0027906377598300885 	 12700.727258142098
0.0028150960914534464 	 12805.389764048534
0.002839768786257299 	 12910.544783394742
0.002864657723011376 	 13016.173082010431
0.0028897647969517433 	 13122.25658761536
0.002915091919925118 	 13228.779579543254
0.0029406410205344504 	 13335.725016563389
0.002966414044285791 	 13443.080809111787
0.002992412953736423 	 13550.835111597604
0.003018639728644314 	 13658.97888447185
0.0030450963661188715 	 13767.507157228147
0.0030717848807730102 	 13876.4164744443
0.0030987073048765767 	 13985.707118735769
0.0031258656885110817 	 14095.38367588258
0.0031532620997258226 	 14205.4514374131
0.0031808986246953572 	 14315.92144660868
0.003208777367878356 	 14426.805689127204
0.0032369004521778685 	 14538.118792248233
0.0032652700191029547 	 14649.878452984938
0.003293888228931772 	 14762.102409036139
0.00332275726087607 	 14874.809824661535
0.0033518793132471325 	 14988.020980274081
0.003381256603623173 	 15101.753518146403
0.0034108913690182093 	 15216.026338124298
0.0034407858660523874 	 15330.854801761669
0.0034709423711238325 	 15446.251933457219
0.003501363180581987 	 15562.22856072832
0.003532050610902468 	 15678.790508079015
0.003563006998863479 	 15795.940034163415
0.003594234701723726 	 15913.675732143776
0.003625736097401932 	 16031.98973817454
0.003657513584657908 	 16150.871832071514
0.0036895695832752083 	 16270.305957286027
0.0037219065342454075 	 16390.272306685893
0.0037545268999539506 	 16510.74852175762
0.003787433164367679 	 16631.708336164025
0.003820627833223969 	 16753.124161203898
0.003854113434221543 	 16874.968118902736
0.003887892517212941 	 16997.21078769106
0.003921967654398703 	 17119.825886896437
0.003956341440523212 	 17242.78803486795
0.003991016493072294 	 17366.075314262354
0.004025995452472531 	 17489.67072333903
0.004061280982292317 	 17613.561034882478
0.0040968757694447 	 17737.738935318175
0.00413278252439196 	 17862.203280067755
0.0041690039813520215 	 17986.957113638826
0.004205542898506653 	 18112.010578987654
0.004242402058211494 	 18237.377364680025
0.004279584267207936 	 18363.075268121625
0.0043170923568368325 	 18489.12555902423
0.004354929183254109 	 18615.549963192334
0.004393097627648257 	 18742.370692389537
0.004431600596459712 	 18869.608808428064
0.004470441021602206 	 18997.280981121305
0.004509621860685985 	 19125.400897544394
0.004549146097243055 	 19253.975365235987
0.004589016740954356 	 19383.004671586004
0.004629236827878948 	 19512.48240800092
0.0046698094206851955 	 19642.393773181437
0.004710737608883999 	 19772.717248190656
0.004752024509064028 	 19903.425199087473
0.0047936732651290585 	 20034.483592840894
0.004835687048537373 	 20165.856097067095
0.004878069058543252 	 20297.503579711014
0.0049208225224406125 	 20429.387395002766
0.004963950695808726 	 20561.471886975305
0.005007456862760145 	 20693.725074292415
0.005051344336190778 	 20826.12174887751
0.005095616458032148 	 20958.644705791114
0.005140276599505899 	 21091.28435547194
0.005185328161380477 	 21224.041209981147
0.005230774574230103 	 21356.923300261555
0.0052766192986960095 	 21489.94613995426
0.005322865825749951 	 21623.131246210112
0.005369517676960033 	 21756.502579030184
0.005416578404758895 	 21890.08502165437
0.005464051592714179 	 22023.90128560422
0.0055119408558014435 	 22157.967994402887
0.00556024984067942 	 22292.295159190333
0.0056089822259677 	 22426.882305609804
0.005658141722526868 	 22561.718304045105
0.005707732073741052 	 22696.78138173816
0.005757757055802985 	 22832.03877591776
0.0058082204780015535 	 22967.449588492134
0.005859126183011863 	 23102.967202775013
0.005910478047187866 	 23238.54166476232
0.005962279980857507 	 23374.125148247884
0.006014535928620508 	 23509.673956611256
0.006067249869648733 	 23645.152809608007
0.0061204258179891865 	 23780.537683408573
0.006174067822869702 	 23915.816360081666
0.006228179969007245 	 24050.989665837755
0.006282766376918971 	 24186.070040056013
0.006337831203236 	 24321.078159775527
0.0063933786410199245 	 24456.040772097196
0.006449412920082097 	 24590.98461662973
0.006505938307305756 	 24725.932439013406
0.006562959106970883 	 24860.898613250683
0.006620479661082005 	 24995.88453559812
0.0066785043496988186 	 25130.87720419954
0.006737037591269705 	 25265.848381627853
0.006796083842968225 	 25400.75524524095
0.006855647601032476 	 25535.54499657942
0.006915733401107495 	 25670.158247407362
0.006976345818590636 	 25804.535564000293
0.007037489468979968 	 25938.62364229951
0.007099169008225756 	 26072.379933975073
0.007161389133084973 	 26205.77750119859
0.007224154581478959 	 26338.806680169997
0.007287470132854209 	 26471.473881007012
0.007351340608546309 	 26603.799637536104
0.007415770872147069 	 26735.8119303835
0.007480765829874894 	 26867.53993709829
0.007546330430948352 	 26999.006696405282
0.007612469667963059 	 27130.221604293543
0.0076791885772718605 	 27261.176243316
0.0077464922393683175 	 27391.841979633948
0.007814385779273616 	 27522.170620530247
0.00788287436692678 	 27652.10000237835
0.007951963217578368 	 27781.56009240711
0.008021657592187613 	 27910.482449094405
0.008091962797823007 	 28038.809210055977
0.00816288418806647 	 28166.499743884426
0.008234427163420955 	 28293.535575730537
0.008306597171721719 	 28419.920283866682
0.008379399708551153 	 28545.67483930797
0.008452840317657256 	 28670.830572788178
0.008526924591375808 	 28795.41777820484
0.008601658171056159 	 28919.455533756074
0.00867704674749085 	 29042.942881951236
0.008753096061348931 	 29165.85323452492
0.008829811903613118 	 29288.135209267846
0.008907200116020733 	 29409.71807313106
