###############
#    GaPSE    #
############### 
#
# Power Spectrum Multipole computation of the file: "Effective_fNL_z115_files/xi_ppmatter_L0_withF.txt"
#
# For this PS_multipole computation we set: 
# 	 #points used in Fourier transform N = 994
# 	 multipole degree in consideration L = 0
# computational time needed (in s) : 0.0201
# kwards passed to "print_PS_multipole": 
# 		ν = 1.5
# 		cut_first_n = 6
# 		n_extrap_high = 1
# 		twofast = false
# 		n_pad = 500
# 		n_extrap_low = 1
# 
# k [h_0/Mpc] 	 	  P [(Mpc/h_0)^3]
0.00018188202452121244 	 13614.494535578493
0.00018345676617293724 	 13614.989142347207
0.0001850451419992112 	 13615.580735751071
0.00018664727004524855 	 13616.197787725281
0.00018826326937830358 	 13616.741360416287
0.00018989326009651952 	 13617.375497268666
0.00019153736333785398 	 13618.00806857898
0.00019319570128908175 	 13618.57123553293
0.00019486839719487547 	 13619.287085256532
0.00019655557536696488 	 13619.873491262328
0.0001982573611933756 	 13620.54931911878
0.00019997388114774772 	 13621.243179509233
0.0002017052627987349 	 13621.881782789074
0.00020345163481948515 	 13622.60134663143
0.0002052131269972038 	 13623.3164529239
0.00020698987024279867 	 13623.983864831025
0.00020878199660060944 	 13624.77803966358
0.00021058963925822073 	 13625.466646435412
0.0002124129325563605 	 13626.237981143664
0.00021425201199888396 	 13627.022473917568
0.00021610701426284402 	 13627.766981602123
0.00021797807720864873 	 13628.58441896018
0.000219865339890307 	 13629.396509012751
0.00022176894256576283 	 13630.178321376994
0.0002236890267073188 	 13631.066384488959
0.00022562573501215026 	 13631.869367120757
0.00022757921141291037 	 13632.749292852355
0.0002295496010884266 	 13633.639539164118
0.0002315370504744906 	 13634.502721657609
0.00023354170727474062 	 13635.432265107202
0.00023556372047163883 	 13636.357094714056
0.00023760324033754332 	 13637.265760354727
0.00023966041844587625 	 13638.264602025944
0.00024173540768238818 	 13639.19608366298
0.00024382836225652057 	 13640.19964772741
0.0002459394377128662 	 13641.212336076544
0.000248068790942729 	 13642.209027704394
0.0002502165801957839 	 13643.266867861083
0.0002523829650918377 	 13644.32180118233
0.00025456810663269166 	 13645.372165824776
0.000256772167214107 	 13646.500298327412
0.00025899531063787364 	 13647.576543608464
0.0002612377021239839 	 13648.720935850586
0.0002634995083229111 	 13649.874596391513
0.000265780897327995 	 13651.021886284414
0.00026808203868793393 	 13652.226371158034
0.0002704031034193855 	 13653.43067791059
0.0002727442640196761 	 13654.640117666811
0.0002751056944796209 	 13655.917969416205
0.00027748757029645403 	 13657.157598593902
0.00027989006848687213 	 13658.46235703248
0.0002823133676001882 	 13659.777640706276
0.00028475764773160307 	 13661.0950837535
0.00028722309053558855 	 13662.466940902903
0.0002897098792393879 	 13663.842092988953
0.0002922181986566331 	 13665.230686725721
0.0002947482352010797 	 13666.680900841851
0.00029730017690046066 	 13668.105120417085
0.00029987421341046063 	 13669.592358688315
0.00030247053602881036 	 13671.09232314608
0.00030508933770950384 	 13672.602170972415
0.0003077308130771384 	 13674.164750021955
0.0003103951584413786 	 13675.734720373619
0.00031308257181154566 	 13677.325450553593
0.0003157932529113333 	 13678.97318629955
0.00031852740319365076 	 13680.606035975154
0.00032128522585559436 	 13682.30068863858
0.0003240669258535488 	 13684.011089793798
0.00032687270991841927 	 13685.738536683592
0.000329702786570995 	 13687.518067471601
0.00033255736613744646 	 13689.309630441901
0.0003354366607649563 	 13691.128606800474
0.0003383408844374856 	 13693.001844089411
0.000341270252991677 	 13694.870455009643
0.00034422498413289526 	 13696.800537036006
0.00034720529745140667 	 13698.750123755024
0.0003502114144386984 	 13700.723564029631
0.00035324355850393976 	 13702.749424847612
0.0003563019549905852 	 13704.79245615841
0.0003593868311931217 	 13706.869154611904
0.0003624984163739607 	 13708.998997844714
0.0003656369417804765 	 13711.133858258318
0.00036880264066219213 	 13713.33073100447
0.0003719957482881143 	 13715.551539318289
0.0003752165019642178 	 13717.802830130866
0.00037846514105108154 	 13720.107820081827
0.00038174190698167813 	 13722.435592515132
0.00038504704327931596 	 13724.803101730242
0.00038838079557573763 	 13727.22407786949
0.0003917434116293752 	 13729.659297677938
0.0003951351413437627 	 13732.157935648533
0.00039855623678610873 	 13734.68557596989
0.00040200695220602963 	 13737.250298051453
0.0004054875440544447 	 13739.870906045975
0.00040899827100263563 	 13742.520374218564
0.00041253939396146964 	 13745.215641137616
0.00041611117610079073 	 13747.965985196877
0.0004197138828689776 	 13750.739553572113
0.00042334778201267144 	 13753.578802205559
0.00042701314359667395 	 13756.452732043907
0.00043071024002401884 	 13759.37043923061
0.00043443934605621554 	 13762.34709937806
0.0004382007388336696 	 13765.359166485685
0.0004419946978962788 	 13768.42322951166
0.00044582150520420833 	 13771.545149331536
0.00044968144515884545 	 13774.699174074896
0.00045357480462393567 	 13777.921989170021
0.000457501872946902 	 13781.185762724897
0.00046146294198034886 	 13784.50021102224
0.0004654583061037517 	 13787.877535687343
0.0004694882622453348 	 13791.297291858758
0.00047355310990413916 	 13794.775491950082
0.00047765315117227926 	 13798.315402475868
0.00048178869075739576 	 13801.896321314376
0.00048596003600529924 	 13805.54997897707
0.0004901674969228127 	 13809.25146305305
0.0004944113862008101 	 13813.010807933657
0.0004986920192374554 	 13816.837786844604
0.0005030097141616416 	 13820.714710960541
0.0005073647918566348 	 13824.656869010707
0.0005117575759839202 	 13828.665587006028
0.0005161883930072573 	 13832.724341639601
0.0005206575722169411 	 13836.860609657875
0.0005251654457542753 	 13841.052157535772
0.0005297123486362554 	 13845.309110420923
0.0005342986187804674 	 13849.63926713958
0.000538924597030201 	 13854.027382325054
0.00054359062717978 	 13858.487933980477
0.0005482970560001134 	 13863.020825037856
0.0005530442332644656 	 13867.612988954048
0.0005578325117744522 	 13872.28825157263
0.0005626622473862583 	 13877.026827974943
0.0005675337990370861 	 13881.838765694378
0.00057244752877183 	 13886.730266420504
0.0005774038017699833 	 13891.688246589478
0.0005824029863727774 	 13896.726330434341
0.0005874454541105561 	 13901.843405693087
0.0005925315797303885 	 13907.029264119437
0.000597661741223917 	 13912.30459901294
0.0006028363198554513 	 13917.651856065853
0.000608055700190302 	 13923.08088329429
0.0006133202701233615 	 13928.59659826161
0.0006186304209079308 	 13934.187826763608
0.0006239865471847973 	 13939.867328708635
0.0006293890470115642 	 13945.633296895361
0.0006348383218922323 	 13951.477884925307
0.0006403347768070398 	 13957.419099535111
0.00064587882024256 	 13963.441413370634
0.0006514708642220585 	 13969.554389552133
0.0006571113243361143 	 13975.76192109932
0.0006628006197735068 	 13982.05451806778
0.000668539173352366 	 13988.444089215258
0.0006743274115515996 	 13994.92838273075
0.000680165764542586 	 14001.501502982055
0.0006860546662211438 	 14008.179154535768
0.0006919945542397786 	 14014.947648484076
0.0006979858700402084 	 14021.816206842544
0.0007040290588861711 	 14028.78791377225
0.0007101245698965149 	 14035.85476460581
0.0007162728560785766 	 14043.027847489786
0.0007224743743618486 	 14050.304661238008
0.0007287295856319361 	 14057.680921975421
0.00073503895476481 	 14065.170364451313
0.0007414029506613557 	 14072.76096592882
0.0007478220462822202 	 14080.461575191792
0.0007542967186829629 	 14088.274647744542
0.0007608274490495081 	 14096.193490051368
0.000767414722733907 	 14104.228413516477
0.0007740590292904078 	 14112.376820827043
0.0007807608625118382 	 14120.635762066993
0.0007875207204663035 	 14129.017291347023
0.0007943391055342022 	 14137.510897688182
0.0008012165244455615 	 14146.125044538503
0.0008081534883176975 	 14154.861711434321
0.0008151505126931995 	 14163.715366495273
0.0008222081175782446 	 14172.695599332203
0.0008293268274812438 	 14181.799838255454
0.0008365071714518224 	 14191.026242761513
0.0008437496831201377 	 14200.385440997657
0.0008510549007365378 	 14209.868298141448
0.0008584233672115634 	 14219.482898661225
0.0008658556301562958 	 14229.23087849636
0.0008733522419230541 	 14239.107742349057
0.0008809137596464455 	 14249.122423239562
0.0008885407452847704 	 14259.272474917376
0.0008962337656617859 	 14269.556989054498
0.0009039933925088313 	 14279.985395514886
0.0009118202025073183 	 14290.549820581442
0.0009197147773315881 	 14301.257993308074
0.000927677703692142 	 14312.111324535705
0.0009357095733792426 	 14323.106255250952
0.0009438109833068964 	 14334.25113719178
0.0009519825355572144 	 14345.543735526911
0.0009602248374251579 	 14356.983939320704
0.0009685385014636717 	 14368.580187661108
0.0009769241455292077 	 14380.325774551942
0.000985382392827643 	 14392.228113573301
0.0009939138719605959 	 14404.288500603538
0.0010025192169721413 	 14416.504237218423
0.0010111990673959332 	 14428.88317908242
0.0010199540683027322 	 14441.423381135017
0.001028784870348347 	 14454.12543293025
0.0010376921298219893 	 14466.996975101652
0.001046676508695049 	 14480.032397642228
0.0010557386746702895 	 14493.238853676556
0.001064879301231471 	 14506.61762926241
0.0010740990676934021 	 14520.16683379285
0.0010833986592524254 	 14533.893920708135
0.001092778767037341 	 14547.797308544854
0.0011022400881607677 	 14561.878222942238
0.0011117833257709535 	 14576.143685706747
0.001121409189104031 	 14590.589130156837
0.001131118393536727 	 14605.221515440024
0.0011409116606395271 	 14620.042218049974
0.0011507897182303037 	 14635.050121281489
0.0011607533004284038 	 14650.252374704727
0.0011708031477092077 	 14665.647829204749
0.0011809400069591617 	 14681.238306225592
0.001191164631531283 	 14697.030373681615
0.001201477781301149 	 14713.020468612322
0.0012118802227233697 	 14729.215427131157
0.0012223727288885485 	 14745.616807313281
0.0012329560795807375 	 14762.224242496108
0.0012436310613353895 	 14779.044672968686
0.0012543984674978118 	 14796.07743966477
0.0012652590982821265 	 14813.32493162583
0.0012762137608307406 	 14830.793406307208
0.0012872632692743312 	 14848.480266697063
0.0012984084447923512 	 14866.392289163126
0.0013096501156740566 	 14884.531285454079
0.0013209891173800643 	 14902.897611996877
0.0013324262926044414 	 14921.498077541479
0.0013439624913373334 	 14940.332548330836
0.001355598570928134 	 14959.4039478674
0.0013673353961492 	 14978.718332572254
0.0013791738392601224 	 14998.274019560637
0.001391114780072549 	 15018.077765036995
0.0014031591060155713 	 15038.131672940692
0.0014153077122016759 	 15058.436775080965
0.001427561501493269 	 15078.999792516079
0.0014399213845697743 	 15099.821114092496
0.0014523882799953132 	 15120.904140520897
0.0014649631142869713 	 15142.254787265732
0.0014776468219836554 	 15163.872201680488
0.0014904403457155462 	 15185.763117658447
0.001503344636274153 	 15207.9299206777
0.0015163606526829754 	 15230.3742319218
0.0015294893622687764 	 15253.102678519725
0.0015427317407334703 	 15276.116116972702
0.0015560887722266378 	 15299.418326880124
0.001569561449418666 	 15323.015081233529
0.0015831507735745165 	 15346.90622791684
0.0015968577546281466 	 15371.098422734405
0.0016106834112575594 	 15395.594263419871
0.0016246287709605115 	 15420.395826586442
0.0016386948701308756 	 15445.50958208916
0.0016528827541356628 	 15470.936742551448
0.0016671934773927128 	 15496.681322443255
0.0016816281034490554 	 15522.748889651493
0.001696187705059952 	 15549.139818345564
0.0017108733642686217 	 15575.860580719753
0.0017256861724866547 	 15602.913866687668
0.0017406272305751265 	 15630.302035452645
0.0017556976489264099 	 15658.031292272302
0.001770898547546698 	 15686.103055073158
0.0017862310561392418 	 15714.52140198825
0.0018016963141883062 	 15743.291596446075
0.0018172954710438563 	 15772.41434584068
0.0018330296860069727 	 15801.895813509136
0.0018489001284160112 	 15831.738645535945
0.0018649079777335036 	 15861.94530906646
0.0018810544236338145 	 15892.521634565737
0.0018973406660915564 	 15923.46910027635
0.0019137679154707667 	 15954.791696355127
0.001930337392614864 	 15986.494298115975
0.0019470503289373755 	 16018.57778816383
0.0019639079665134548 	 16051.047932934685
0.001980911558172191 	 16083.907242626226
0.001998062367589715 	 16117.158176575846
0.002015361669383117 	 16150.806140983925
0.00203281074920517 	 16184.852600103142
0.0020504109038398787 	 16219.301388101221
0.0020681634412988556 	 16254.156990020609
0.002086069680918527 	 16289.420404812632
0.002104130953458187 	 16325.097014088515
0.0021223486011988936 	 16361.18920551614
0.002140723978043228 	 16397.69943183778
0.0021592584496159125 	 16434.632740538455
0.0021779533933653002 	 16471.990628287924
0.002196810198665748 	 16509.776832907846
0.002215830266920867 	 16547.99556726808
0.002235015011667679 	 16586.648016508276
0.0022543658586816604 	 16625.739312198388
0.002273884246082711 	 16665.271851938178
0.0022935716244420258 	 16705.248201716535
0.002313429456889903 	 16745.673223331425
0.00233345921922448 	 16786.548593950847
0.002353662400021412 	 16827.878108639623
0.0023740405007444993 	 16869.665901743767
0.002394595035857275 	 16911.913484570832
0.002415327532935556 	 16954.625922694286
0.0024362395327809706 	 16997.80578833885
0.0024573325895354678 	 17041.455898600412
0.002478608270796817 	 17085.581094897534
0.0025000681577351113 	 17130.183355808673
0.002521713845210276 	 17175.26663999531
0.002543546941890595 	 17220.835119620682
0.0025655690703722646 	 17266.89067696243
0.0025877818672999835 	 17313.438371663964
0.0026101869834885827 	 17360.48096637973
0.0026327860840457133 	 17408.02149693894
0.0026555808484955926 	 17456.064751476977
0.0026785729709038245 	 17504.612912128192
0.0027017641600032977 	 17553.669969091345
0.002725156139321178 	 17603.239986220913
0.002748750647306997 	 17653.324988493583
0.002772549437461848 	 17703.929798813657
0.002796554278468707 	 17755.057085234595
0.0028207669543238753 	 17806.709765699277
0.0028451892644695636 	 17858.89223175918
0.0028698230239276234 	 17911.606465360863
0.0028946700634344363 	 17964.856058966005
0.0029197322295769703 	 18018.64453294456
0.002945011384930016 	 18072.973560626084
0.002970509408194608 	 18127.84725091892
0.0029962281943376494 	 18183.267674876086
0.0030221696547327384 	 18239.237114797943
0.0030483357173022216 	 18295.759076431044
0.003074728326660473 	 18352.834837514732
0.003101349444258412 	 18410.467111449758
0.0031282010485292762 	 18468.65843505938
0.0031552851350356574 	 18527.409689229546
0.003182603716617804 	 18586.723896769952
0.003210158823543215 	 18646.602191141676
0.003237952503657523 	 18707.045920520897
0.00326598682253669 	 18768.057485537476
0.003294263863640513 	 18829.637278387625
0.0033227857284674656 	 18891.787021305063
0.003351554536710879 	 18954.50823467898
0.003380572426416468 	 19017.80101012457
0.0034098415541412345 	 19081.667378399372
0.0034393640951137314 	 19146.10767666964
0.0034691422433957273 	 19211.122508229022
0.0034991782120452637 	 19276.713427306622
0.003529474233281122 	 19342.880219001097
0.0035600325586487235 	 19409.62393034412
0.003590855459187455 	 19476.945412204786
0.0036219452255994537 	 19544.844295880026
0.0036533041684198423 	 19613.321967151696
0.0036849346181884483 	 19682.3782810253
0.0037168389256230067 	 19752.0133694971
0.0037490194617938472 	 19822.22818273084
0.0037814786183001303 	 19893.022059674393
0.003814218807447571 	 19964.395464430192
0.003847242462427722 	 20036.348593751507
0.003880552037498801 	 20108.88051649091
0.003914150008168092 	 20181.991791114484
0.003948038871375914 	 20255.681490273288
0.003982221145681197 	 20329.948862787074
0.004016699371448648 	 20404.793754320348
0.004051476111037553 	 20480.214441794455
0.004086553948992203 	 20556.210108796986
0.004121935492233977 	 20632.779532926987
0.004157623370255076 	 20709.920377800503
0.004193620235313951 	 20787.631512621097
0.004229928762632409 	 20865.910337886235
0.004266551650594429 	 20944.754332643217
0.004303491620946709 	 21024.161397016418
0.004340751419000932 	 21104.127945898243
0.004378333813837796 	 21184.651169678134
0.004416241598512808 	 21265.72782339523
0.0044544775902638604 	 21347.353667651107
0.0044930446307206 	 21429.525540414143
0.004531945586115612 	 21512.238966696747
0.0045711833474974374 	 21595.489603737
0.004610760830945426 	 21679.27351955461
0.004650680977786458 	 21763.585512163205
0.004690946754813536 	 21848.421162332288
0.00473156115450627 	 21933.775702859493
0.004772527195253277 	 22019.643562542995
0.004813847921576499 	 22106.02018991914
0.004855526404357469 	 22192.899886655876
0.004897565741065531 	 22280.277120911738
0.0049399690559880395 	 22368.14671708031
0.00498273950046255 	 22456.50234047155
0.005025880253111021 	 22545.338327970156
0.005069394520076045 	 22634.64860722394
0.005113285535259121 	 22724.426305763503
0.005157556560560994 	 22814.665341471784
0.005202210886124072 	 22905.35845388679
0.005247251830576944 	 22996.4984007823
0.005292682741281014 	 23088.078088556696
0.005338506994579273 	 23180.089229957695
0.00538472799604722 	 23272.524007957665
0.00543134918074596 	 23365.37408715611
0.00547837401347749 	 23458.630323663165
0.005525805989042198 	 23552.28419857315
0.00557364863249859 	 23646.326077199035
0.005621905499425265 	 23740.746342371276
0.005670580176185162 	 23835.535513404328
0.005719676280192088 	 23930.6830856079
0.0057691974601795605 	 24026.179057646117
0.0058191473964719735 	 24122.01303085491
0.005869529801258114 	 24218.17399042048
0.0059203484188670415 	 24314.65157050148
0.005971607026046366 	 24411.43447550445
0.006023309432242921 	 24508.511498754015
0.006075459479885885 	 24605.87157243315
0.006128061044672331 	 24703.50270380848
0.006181118035855274 	 24801.393315381385
0.006234634396534189 	 24899.531371378354
0.006288614103948066 	 24997.904175964046
0.006343061169770978 	 25096.499463341876
0.006397979640410233 	 25195.30395963291
0.006453373597307092 	 25294.30431231224
0.0065092471572400865 	 25393.487119691308
0.0065656044726309865 	 25492.8380112133
0.006622449731853383 	 25592.34289240057
0.006679787159543974 	 25691.987183199562
0.006737621016916523 	 25791.75571468115
0.006795955602078552 	 25891.633744864324
0.006854795250350762 	 25991.60571453094
0.006914144334589231 	 26091.656139829352
0.006974007265510394 	 26191.769644396034
0.007034388492018843 	 26291.930155336235
0.0070952925015379574 	 26392.122017574122
0.007156723820343403 	 26492.329262697367
0.0072186870138995175 	 26592.535495408487
0.007281186687198605 	 26692.724734840303
0.007344227485103175 	 26792.88023269072
0.007407814092691135 	 26892.98522767223
0.007471951235603981 	 26993.022900727192
0.007536643680397995 	 27092.975623770428
0.0076018962348984925 	 27192.825944522177
0.007667713748557125 	 27292.555915694156
0.007734101112812285 	 27392.14703983802
0.007801063261452631 	 27491.581058598014
0.007868605170983756 	 27590.83895158207
0.00793673186099803 	 27689.901695619403
0.008005448394547652 	 27788.750273388636
0.00807475987852092 	 27887.36506254077
0.008144671464021775 	 27985.726757780172
0.008215188346752611 	 28083.81576266216
0.008286315767400422 	 28181.61214092974
0.008358059012026266 	 28279.096272350038
0.008430423412458133 	 28376.24789419589
0.00850341434668718 	 28473.046729197562
0.008577037239267423 	 28569.472417067438
0.00865129756171888 	 28665.503929974024
0.008726200832934202 	 28761.120384264654
0.008801752619588831 	 28856.300492968876
0.008877958536554683 	 28951.022580639892
0.008954824247317472 	 29045.265228465596
0.009032355464397594 	 29139.00649162434
0.009110557949774658 	 29232.224549205766
0.009189437515315724 	 29324.89768504837
0.009269000023207219 	 29417.00379268837
0.009349251386390613 	 29508.52108564629
