# This is an integration map on mu of the ξ multipole concerning the PP Matter.
###############
#    GaPSE    #
############### 
#
# The Cosmology considered had the following paremeters:
# 
# - Matter Power Spectrum input file: "../test/datatest/file_pk.txt"
# - Background data input file: "../test/datatest/WideA_ZA_background.dat"
# - F window function input file: "../data/F_REFERENCE_pi2.txt"
# - Integrated F window function input file: "../data/IntF_pi2_z115.txt"
#
# - Basic CosmoParams considered: 
#	 z_min = 1.0 	 z_max = 1.5
#	 θ_max = 1.5707963267948966 [rad] 	 h_0 = 0.7
#	 Ω_b = 0.0489 	 Ω_cdm = 0.25102 	 Ω_M0 = 0.29992
#	 b = 1.0 	 f_evo = 0.0 	 s_b = 0.0
#
# - CosmoParams about the Input Power Spectrum: 
#	 fit_left_min = 1.0e-6 	 fit_right_min = 10.0 	 
#	 fit_left_max = 3.0e-6 	 fit_right_max = 20.0 	 
#
# - CosmoParams about the Input Power Spectrum Tools: 
#	 k_max = 10.0 	 fit_max = 0.5 	 N = 1024 	 
#	 con = true 	 k_min = 1.0e-8 	 fit_min = 0.05 	 
#
# - CosmoParams about the Integrated Window Function F: 
#	 ss_step = 50 	 N = 1000 	 rtol = 0.05 	 
#	 llim = 0.0 	 atol = 0.0 	 rlim = Inf 	 
#	 ss_stop = 0.0 	 trap = true 	 ss_start = 0.0 	 
#
# - Computed quantities: 
# 	 effective redshift z_eff = 1.2613556177172356 
# 	 comoving s_min = 2312.577431755554 Mpc/h_0
# 	 comoving s_max = 3054.4830200675647 Mpc/h_0
# 	 comoving s_eff = 2725.87720083235 Mpc/h_0
# 	 Volume of the survey V_survey = 3.378305693005294e10 Mpc^3/h_0^3
# 	 σ_0 = 15.593462966741178
# 	 σ_1 = 15.074895881392285
# 	 σ_2 = 100.85852368830226
# 	 σ_3 = 3735.1226181519773
# 	 (where σ_i = \int_{k_{min}}^{k_{max}}\frac{dq}{2 π^2} q^{2-i} P(q))
# 
# computational time needed (in s) : 7.7865
# kwards passed: 
# 		L = 0
# 		use_windows = true
# 		pr = true
# 		enhancer = 1.0e6
# 		N_μs = 200
# 		μ_atol = 0.0
# 		μ_rtol = 0.01
# 		trap = false
# 
# s [Mpc/h_0] 	 	 xi
1.0 	 2.738937539256168
1.0087644236652376 	 2.7229795084689474
1.0176056624526588 	 2.7046690116942678
1.0265243896025387 	 2.68642364002198
1.0355212842557147 	 2.6682434023692747
1.0445970315053026 	 2.6501282722227915
1.0537523224488645 	 2.6320782195415737
1.0629878542410345 	 2.614093160939456
1.0723043301466046 	 2.596173103152203
1.0817024595940783 	 2.578318035449779
1.0911829582296901 	 2.560527940065109
1.1007465479719025 	 2.54280275114125
1.110393957066376 	 2.5251424705979617
1.1201259201414253 	 2.5075471023282567
1.1299431782639586 	 2.4900166389015834
1.139846478995909 	 2.4725510370841546
1.1498365764511584 	 2.4551502941459327
1.1599142313529627 	 2.4378144270542284
1.1700802110918784 	 2.4205434362523905
1.1803352897841983 	 2.4033373042299107
1.1906802483308978 	 2.386196026067093
1.2011158744771002 	 2.3691196303744446
1.2116429628720597 	 2.352108123011325
1.222262315129674 	 2.3351615130129386
1.2329747398895248 	 2.3182797972621647
1.2437810528784525 	 2.3014630149516226
1.2546820769726745 	 2.28471117560127
1.2656786422604431 	 2.268024313312993
1.2767715861052564 	 2.2514024314624073
1.2879617532096201 	 2.2348455791192037
1.2992499956793713 	 2.218353769089368
1.3106371730885633 	 2.201927056987579
1.3221241525449208 	 2.185565457345593
1.3337118087558677 	 2.169269028512999
1.3454010240951344 	 2.1530377880805225
1.3571926886699486 	 2.1368718079768185
1.3690877003888149 	 2.1207711180445004
1.3810869650298883 	 2.1047357850724087
1.3931913963099474 	 2.088765834838293
1.4054019159539715 	 2.07286134960592
1.4177194537653288 	 2.05702237750278
1.4301449476965773 	 2.0412489929808766
1.442679343920889 	 2.025541234040183
1.4553235969040985 	 2.0098991882533275
1.4680786694773835 	 1.99432292309726
1.4809455329105816 	 1.978812520205979
1.4939251669861509 	 1.963368033507463
1.5070185600737782 	 1.9479895526244904
1.520226709205641 	 1.932677163859699
1.5335506201523292 	 1.9174309554363091
1.546991307499432 	 1.902251000129136
1.5605497947247968 	 1.8871373882989628
1.5742271142764643 	 1.872090223481292
1.5880243076512877 	 1.8571095996205518
1.601942425474239 	 1.8421956100398442
1.6159825275784134 	 1.827348346348801
1.630145683085732 	 1.8125679271169168
1.6444329704883534 	 1.7978544509897092
1.6588454777307984 	 1.7832080319814347
1.6733843022927946 	 1.7686287649083732
1.6880505512728465 	 1.7541167809089127
1.7028453414725395 	 1.7396721824933428
1.7177697994815808 	 1.7252951027573153
1.7328250617635876 	 1.7109856425984362
1.7480122747426252 	 1.696743943167195
1.7633325948905052 	 1.6825701106209363
1.778787188814848 	 1.6684642937524377
1.7943772333479184 	 1.654426602769024
1.8101039156362364 	 1.6404571861796737
1.8259684332309778 	 1.6265561545924299
1.8419719941791641 	 1.6127236675084535
1.8581158171156529 	 1.5989598474710844
1.8744011313559332 	 1.5852648476349955
1.8908291769897374 	 1.5716387847207376
1.9074012049754678 	 1.5580818232362093
1.9241184772354571 	 1.5445940998008958
1.9409822667520606 	 1.5311757700801505
1.9579938576645888 	 1.5178269584221784
1.975154545367094 	 1.504547829204608
1.9924656366070108 	 1.4913385329957771
2.009928449584662 	 1.4781992263322192
2.0275443140536358 	 1.465130042219555
2.0453145714220455 	 1.4521311407869841
2.063240574854672 	 1.4392026847542454
2.0813236893760068 	 1.426344829954025
2.099565291974193 	 1.4135577183789387
2.117966771705883 	 1.4008415030414574
2.136529529802009 	 1.3881963556638974
2.155254979774485 	 1.3756224295940835
2.174144547523841 	 1.3631198751629134
2.193199671447806 	 1.3506888366850978
2.2124218025508346 	 1.3383294907162413
2.231812404554599 	 1.32604198605191
2.251372954009448 	 1.3138264794457641
2.2711049404068437 	 1.3016831060581608
2.2910098662927836 	 1.2896120423814956
2.311089247382213 	 1.2776134304135296
2.3313446126744455 	 1.2656874299247782
2.3517775045695934 	 1.253834167281547
2.3723894789860163 	 1.2420538135231318
2.393182105478802 	 1.2303465016891202
2.4141569673592835 	 1.2187123895654282
2.435315661815605 	 1.2071515955252021
2.4566598000343456 	 1.1956642794192303
2.4781910073232045 	 1.18425056354474
2.4999109232347667 	 1.1729105972309186
2.5218212016913513 	 1.161644491446937
2.5439235111109526 	 1.1504523892124023
2.5662195345342877 	 1.139334400278924
2.5887109697529547 	 1.1282906584860708
2.611399529438718 	 1.1173212665825063
2.6342869412739205 	 1.1064263459194092
2.657374948083048 	 1.0956059913336849
2.6806653079654366 	 1.0848603142995596
2.7041597944291498 	 1.0741894068287485
2.7278601965260285 	 1.0635933644035536
2.7517683189879207 	 1.0530722640546417
2.7758859823641098 	 1.0426261885142252
2.8002150231599425 	 1.0322552149865103
2.8247572939766794 	 1.0219594092124884
2.849514663652561 	 1.0117388269967604
2.874489017405119 	 1.0015935167277377
2.89968225697473 	 0.9915235353726597
2.9250963007694284 	 0.981528915118793
2.9507330840109907 	 0.9716096864698438
2.9765945588822964 	 0.9617658588235909
3.0026826946759813 	 0.951997462389303
3.028999477944399 	 0.942304491955213
3.055546912650887 	 0.9326869479087346
3.082327020322368 	 0.9231447971078611
3.109341840203282 	 0.9136780357727148
3.1365934294108735 	 0.9042866175383936
3.16408386309183 	 0.8949705070606617
3.1918152345803086 	 0.8857296262281249
3.21978965555733 	 0.8765639296236131
3.248009256211584 	 0.8674733262687302
3.276476185401635 	 0.858457738567031
3.305192610819556 	 0.8495170419870001
3.334160719155992 	 0.8406511417198147
3.363382716266668 	 0.8318598992012486
3.392860827340366 	 0.8231431875496696
3.4225972970683656 	 0.8145008347660694
3.45259438981537 	 0.8059326898206698
3.482854389791934 	 0.7974385637528391
3.5133796012284026 	 0.7890182738603028
3.5441723485503718 	 0.7806715992889265
3.575234976555688 	 0.7723983275519916
3.6065698505929973 	 0.7641982165848178
3.6381793567418663 	 0.7560710222169823
3.6700659019944735 	 0.7480164729610085
3.7022319144388947 	 0.7400342912897999
3.7346798434440016 	 0.7321241798028629
3.7674121598459673 	 0.7242858286059005
3.800431356136425 	 0.7165189137567209
3.8337399466522575 	 0.708823090864255
3.8673404677670637 	 0.7011980057668095
3.901235478084292 	 0.6936432804132734
3.935427558632078 	 0.6861585367230545
3.9699193130597807 	 0.6787433633277908
4.0047133678362465 	 0.6713973487646719
4.039812372449803 	 0.6641200466594183
4.075218999610022 	 0.6569110236697987
4.110935945451229 	 0.6497698033137003
4.146965929737818 	 0.6426959174931786
4.183311696071346 	 0.635688854156279
4.219976012099458 	 0.6287481245309706
4.256961669726637 	 0.6218731910568944
4.294271485326799 	 0.6150635307727323
4.331908299957752 	 0.6083185716004511
4.36987497957754 	 0.601637770423297
4.408174415262679 	 0.5950205351672736
4.4468095234283025 	 0.5884662911614825
4.485783246050241 	 0.5819744152772022
4.52509855088905 	 0.5755443130808657
4.564758431715994 	 0.5691753471031037
4.604765908541019 	 0.5628668960139506
4.645124027842714 	 0.556618296949149
4.685835862800302 	 0.5504289101736519
4.726904513527647 	 0.5442980638555245
4.768333107309329 	 0.5382250978820734
4.810124798838766 	 0.5322093229652
4.852282770458454 	 0.5262500637107869
4.894810232402284 	 0.5203466269928676
4.937710423039999 	 0.5144983246290589
4.9809866091237796 	 0.5087044557568295
5.024642086037016 	 0.5029643223730615
5.068680178045226 	 0.4972772250086358
5.113104238549206 	 0.491642461145156
5.157917650340374 	 0.4860593346809661
5.203123825858364 	 0.48052714136674335
5.248726207450877 	 0.4750451919837283
5.294728267635812 	 0.4696127861889953
5.341133509365682 	 0.46422924966436785
5.38794546629436 	 0.45889389094553107
5.43516770304616 	 0.45360604879586197
5.482803815487272 	 0.4483650442089026
5.530857430999584 	 0.44317024199352867
5.579332208756892 	 0.43802098450249227
5.628231840003542 	 0.43291665633752346
5.677560048335512 	 0.4278566207706949
5.727320589983952 	 0.4228402983981957
5.777517254101209 	 0.4178670873656208
5.828153863049372 	 0.41293643531282015
5.879234272691327 	 0.4080477697002705
5.93076237268438 	 0.4032005819553251
5.982742086776435 	 0.3983943473873481
6.035177373104791 	 0.3936285918970603
6.088072224497536 	 0.388902827979455
6.141430668777598 	 0.3842166309706074
6.195256769069448 	 0.3795695719417538
6.249554624108503 	 0.3749612679064646
6.304328368553234 	 0.37039133331660434
6.359582173300011 	 0.3658594379177027
6.415320245800705 	 0.3613652617928784
6.471546830383077 	 0.35690852247032206
6.52826620857398 	 0.35248894740993614
6.585482699425377 	 0.34810630739436677
6.643200659843233 	 0.3437603976727206
6.701424484919284 	 0.3394510403967912
6.760158608265712 	 0.3351780792270421
6.819407502352757 	 0.3309413871684382
6.8791756788492755 	 0.3267408724104108
6.9394676889663085 	 0.3225764590041775
7.000288123803635 	 0.31844810061524625
7.061641614699381 	 0.3143557664822764
7.12353283358268 	 0.31029946605442477
7.185966493329428 	 0.3062792144522845
7.248947348121168 	 0.3022950591058327
7.312480193807102 	 0.2983470510143987
7.376569868269287 	 0.2944352793638749
7.441221251791024 	 0.290559830488097
7.506439267428489 	 0.2867208194686379
7.572228881385607 	 0.2829183554836236
7.63859510339222 	 0.2791525768363616
7.705542987085558 	 0.2754236121419056
7.7730776303950755 	 0.27173160937312907
7.841204175930638 	 0.26807670352100793
7.909927811374126 	 0.26445904422019595
7.979253769874453 	 0.2608787655844051
8.049187330446076 	 0.2573360075990038
8.119733818370968 	 0.2538308915864986
8.19089860560413 	 0.2503635366926161
8.262687111182647 	 0.24693404054582185
8.335104801638348 	 0.24354249202493194
8.408157191414062 	 0.24018895567420823
8.48184984328353 	 0.2368734783425347
8.556188368774995 	 0.23359607859558187
8.631178428598517 	 0.23035675335942543
8.706825733077013 	 0.22715546936181874
8.783136042581093 	 0.22399216390210086
8.860115167967692 	 0.22086673963762704
8.937768971022557 	 0.2177790681195093
9.016103364906613 	 0.21472898621122025
9.09512431460623 	 0.2117162942676326
9.174837837387441 	 0.20874075480682872
9.255250003254156 	 0.20580209363807137
9.336366935410366 	 0.20290000162343885
9.418194810726419 	 0.20003413025256916
9.500739860209368 	 0.1972040965336141
9.584008369477452 	 0.19440947864274494
9.668006679238733 	 0.19164982674358955
9.752741185773928 	 0.18892465203025577
9.838218341423463 	 0.1862334436094169
9.924444655078808 	 0.18357565274303186
10.011426692678121 	 0.18095071823080036
10.099171077706222 	 0.1783580431656064
10.187684491698949 	 0.17579702985642415
10.276973674751972 	 0.1732670474203258
10.367045426033993 	 0.1707674749467545
10.457906604304513 	 0.1682976629023554
10.549564128436126 	 0.1658569872137776
10.64202497794133 	 0.16344480082164053
10.73529619350405 	 0.16106049043315643
10.829384877515734 	 0.15870342712338875
10.924298194616194 	 0.15637303131802438
11.020043372239202 	 0.15406871796987123
11.116627701162802 	 0.15178995377897192
11.214058536064504 	 0.14953620904051643
11.31234329608135 	 0.1473070179987604
11.411489465374814 	 0.1451019325570471
11.511504593700755 	 0.1429205632757782
11.61239629698428 	 0.14076254607930822
11.714172257899682 	 0.138627582193748
11.816840226455488 	 0.13651541333319028
11.920408020584569 	 0.13442583403921796
12.024883526739464 	 0.13235868112407578
12.130274700492945 	 0.13031384505699936
12.236589567143774 	 0.12829127040603752
12.34383622232785 	 0.12629093842783484
12.45202283263464 	 0.12431287590722111
12.561157636229057 	 0.12235714272934346
12.671248943478805 	 0.1204238489323655
12.78230513758715 	 0.11851311992020168
12.8943346752313 	 0.11662511052247215
13.007346087206393 	 0.11475998488332848
13.121347979075036 	 0.11291793309564012
13.23634903182266 	 0.11109913917067986
13.352358002518514 	 0.10930378324721725
13.469383724982507 	 0.10753203217986407
13.587435110457912 	 0.10578404119046712
13.706521148289884 	 0.10405994053872293
13.826650906610038 	 0.10235981815416506
13.94783353302691 	 0.10068372910150307
14.070078255322562 	 0.09903168177914276
14.193394382155258 	 0.09740364395979001
14.317791303768272 	 0.09579951557032525
14.443278492704946 	 0.09421914834981925
14.569865504530028 	 0.09266233268955754
14.697561978557255 	 0.09112880832594508
14.82637763858342 	 0.08961824865408119
14.956322293628773 	 0.08813027303331475
15.087405838683967 	 0.08666445341039841
15.219638255463575 	 0.08522031443636069
15.353029613166118 	 0.08379734307371464
15.48759006924084 	 0.08239498529254875
15.623329870161195 	 0.08101267498609074
15.760259352205043 	 0.07964982421302988
15.898388942241793 	 0.07830584887500262
16.037729158526332 	 0.07698016106364244
16.178290611499985 	 0.07567219919943
16.32008400459851 	 0.07438142654500797
16.46312013506708 	 0.07310734448629821
16.607409894782503 	 0.07184950248341483
16.75296427108264 	 0.07060749948984858
16.899794347602988 	 0.0693810087281551
17.047911305120774 	 0.06816975442213573
17.197326422406245 	 0.06697354863722617
17.348051077081593 	 0.0657922528362598
17.50009674648732 	 0.06462582357533332
17.653475008556185 	 0.06347425833315601
17.80819754269485 	 0.06233763905984859
17.96427613067327 	 0.06121607764705123
18.1217226575218 	 0.06010974984950411
18.28054911243626 	 0.05901884682400697
18.440767589690836 	 0.057943588017687744
18.60239028955906 	 0.056884192486909804
18.76542951924286 	 0.05584086944879339
18.929897693809654 	 0.05481381057256324
19.09580733713781 	 0.05380315681762638
19.26317108287024 	 0.052809014274837016
19.432001675376462 	 0.05183141038213064
19.602311970723072 	 0.05087032223901398
19.774114937652648 	 0.049925630372746915
19.94742365857133 	 0.0489971529305506
20.122251330545037 	 0.048084617523099456
20.29861126630432 	 0.0471876867434289
20.47651689525818 	 0.0463059494754828
20.655981764516618 	 0.04543893559644776
20.837019539922256 	 0.0445861391400445
21.01964400709097 	 0.043747018130416995
21.203869072461593 	 0.042921029621669805
21.389708764354868 	 0.0421076242685733
21.577177234041724 	 0.04130629400892399
21.766288756820774 	 0.04051656886968652
21.957057733105454 	 0.03973804182983417
22.149498689520474 	 0.03897037772124533
22.34362628000805 	 0.03821332208762197
22.539455286943777 	 0.03746672694250234
22.737000622262237 	 0.036730515421726104
22.936277328592503 	 0.03600471545248826
23.137300580403675 	 0.035289413253314646
23.340085685160272 	 0.03458478893956757
23.544648084487967 	 0.033891048823866995
23.75100335534935 	 0.03320843587216913
23.959167211230103 	 0.03253719253649062
24.169155503335595 	 0.03187754805924165
24.380984221797842 	 0.031229699199823446
24.59466949689314 	 0.030593754575484
24.810227600270412 	 0.02996976984898839
25.027674946190142 	 0.02935768558778088
25.24702809277441 	 0.028757375586480404
25.468303743267644 	 0.02816857715878483
25.69151874730859 	 0.02759095982884546
25.916690102213398 	 0.027024106398132266
26.143834954269856 	 0.026467548239234827
26.37297060004313 	 0.0259207795712229
26.604114487692765 	 0.02538326973633513
26.83728421830138 	 0.024854543188494827
27.072497547214972 	 0.024334145931359918
27.309772385394876 	 0.023821725762382586
27.54912680078167 	 0.023316988694303653
27.79057901967108 	 0.022819783986001284
28.03414742810173 	 0.022330056312521336
28.279850573255345 	 0.021847862134957187
28.52770716486897 	 0.02137334486897049
28.777736076659707 	 0.020906718132742155
29.02995634776195 	 0.02044825642872605
29.284387184177092 	 0.019998221987429607
29.541047960236064 	 0.019556859860691174
29.799958220074682 	 0.01912435161045348
30.061137679121785 	 0.018700798722184525
30.324606225600647 	 0.018286198735479722
30.59038392204332 	 0.017880406573547416
30.858491006818365 	 0.017483186951185475
31.128947895672052 	 0.017094179088728026
31.401775183282833 	 0.01671296362537401
31.676993644829654 	 0.01633904970697818
31.954624237573984 	 0.015971944675915728
32.23468810245554 	 0.01561120601791684
32.51720656570226 	 0.015256433770620352
32.80220114045412 	 0.0149073668410977
33.08969352840139 	 0.014563816549425847
33.379705621437175 	 0.014225787895419508
33.67225950332437 	 0.013893357632474918
33.96737745137732 	 0.013566737138204592
34.26508193815823 	 0.013246180684635771
34.56539563318832 	 0.012931971142183167
34.86834140467414 	 0.012624384671006824
35.17394232124885 	 0.01232358424871819
35.48222165372889 	 0.012029667102590447
35.79320287688605 	 0.01174255820988842
36.10690967123487 	 0.011462083708553684
36.423365924836034 	 0.011187916253548704
36.74259573511528 	 0.010919636230632374
37.064623410698374 	 0.01065679472420304
37.38947347326222 	 0.010398922402635364
37.71717065940206 	 0.010145638838452379
38.04773992251511 	 0.009896632810052782
38.381206434700815 	 0.009651759996827438
38.71759558867746 	 0.009411022275061348
39.056932999715976 	 0.009174545569007398
39.39924450759029 	 0.00894257760085715
39.74455617854508 	 0.008715394695483826
40.09289430728069 	 0.008493297774994081
40.444285418955296 	 0.008276497892528385
40.798756271204795 	 0.00806507549791554
41.15633385618041 	 0.007858987664274364
41.51704540260392 	 0.007658006944365129
41.880918377841255 	 0.007461814330218898
42.24798048999389 	 0.007269960329881038
42.61825969000888 	 0.007082001493869256
42.99178417380724 	 0.006897567047246774
43.36858238443095 	 0.006716361593714097
43.748683014208844 	 0.006538292446264437
44.13211500694156 	 0.006363366484973625
44.51890756010537 	 0.006191812016558348
44.90909012707569 	 0.006023907855944233
45.30269241936973 	 0.00585993895904762
45.69974440890901 	 0.005700160229940542
46.100276330301774 	 0.005544657160758793
46.504318683145065 	 0.00539341978462115
46.91190223434736 	 0.005246186725372908
47.32305802047139 	 0.005102593257780193
47.73781735009741 	 0.004962232733152791
48.156211806207395 	 0.004824687624690188
48.57827324858992 	 0.004689684755259331
49.00403381626622 	 0.004557041871487652
49.433525929937616 	 0.004426830100816381
49.866782294454076 	 0.0042992744860908556
50.30383590130485 	 0.004174675465864921
50.744720031130484 	 0.004053320125123942
51.18946825625716 	 0.003935374595784126
51.63811444325324 	 0.0038209041396460924
