# This is an integration map on mu of the auto_integratedgp GR effect.
# The following parameters were used for this computation: 
# CLASS Power Spectrum input file : "file_pk.txt"
# F window function input file : "../data/F_REFERENCE.txt"
# CLASS Background input file: "../data/WideA_ZA_background.dat"
# 	 z_min = 0.05 	 z_max = 0.2
# 	 k_min = 1.0e-8 	 k_max = 10.0
# 	 h_0 = 0.7 	 Ω_b = 0.0489 	 Ω_cdm = 0.25102 	 Ω_M0 = 0.29992
# 	 comoving s_min = 148.1920001343431 Mpc/h_0
# 	 comoving s_max = 571.7022420911966 Mpc/h_0
# 	 comoving s_eff = 435.37470960794167 Mpc/h_0
# 	 comoving z_eff = 0.15045636097417317 
# 	 Volume of the survey V_survey = 3.845366169354268e8
# 	 σ_0 = 15.593462966741178
# 	 σ_1 = 15.074895881392285
# 	 σ_2 = 100.85852368830221
# 	 σ_3 = 15.593462966741178
# 
# computational time needed (in s) : 2.6760
# kwards passed: 
# 		use_windows = false
# 		N_χs = 100
# 		enhancer = 1.0e6
# 		use_my = false
# 
# s [Mpc/h_0] 	 	 xi
0.1 	 -7.157866639507348e-10
0.10974987654930562 	 -7.1578668399592e-10
0.12045035402587821 	 -7.157867081404184e-10
0.1321941148466029 	 -7.157867372244925e-10
0.14508287784959398 	 -7.157867722570428e-10
0.1592282793341092 	 -7.157868144581428e-10
0.17475284000076838 	 -7.157868652926547e-10
0.19179102616724888 	 -7.157869265307683e-10
0.21049041445120203 	 -7.157870003011507e-10
0.23101297000831597 	 -7.157870891708375e-10
0.2535364493970112 	 -7.157871962344478e-10
0.2782559402207124 	 -7.157873252145478e-10
0.30538555088334157 	 -7.157874806089174e-10
0.3351602650938842 	 -7.157876678186764e-10
0.3678379771828633 	 -7.157878933757489e-10
0.40370172585965547 	 -7.157881651227093e-10
0.44306214575838804 	 -7.15788492536148e-10
0.4862601580065353 	 -7.157888870101114e-10
0.533669923120631 	 -7.157893622814123e-10
0.5857020818056666 	 -7.157899349035015e-10
0.6428073117284321 	 -7.157906247777634e-10
0.7054802310718643 	 -7.15791455931828e-10
0.7742636826811271 	 -7.157924571911087e-10
0.8497534359086443 	 -7.157936633764652e-10
0.9326033468832199 	 -7.157951162426057e-10
1.0235310218990261 	 -7.15796866170974e-10
1.1233240329780274 	 -7.157989736546434e-10
1.2328467394420661 	 -7.158015115618055e-10
1.353047774579807 	 -7.15804567644804e-10
1.484968262254465 	 -7.158082473443213e-10
1.6297508346206442 	 -7.158126779381315e-10
1.788649529057435 	 -7.158180121376368e-10
1.9630406500402708 	 -7.158244344834426e-10
2.154434690031884 	 -7.158321662938815e-10
2.3644894126454075 	 -7.158414744509497e-10
2.595024211399736 	 -7.158526789391661e-10
2.8480358684358014 	 -7.158661648426375e-10
3.1257158496882362 	 -7.158823959264501e-10
3.4304692863149184 	 -7.159019296759988e-10
3.7649358067924683 	 -7.159254390242925e-10
4.132012400115337 	 -7.159537305937615e-10
4.534878508128582 	 -7.159877779224402e-10
4.977023564332112 	 -7.160287496034861e-10
5.462277217684341 	 -7.160780687389644e-10
5.99484250318941 	 -7.161374316226021e-10
6.579332246575681 	 -7.162088531668617e-10
7.220809018385464 	 -7.162947866078601e-10
7.924828983539173 	 -7.163981055650181e-10
8.697490026177835 	 -7.165223202841996e-10
9.54548456661834 	 -7.166716021760437e-10
10.476157527896646 	 -7.168509398497826e-10
11.497569953977356 	 -7.170663226075907e-10
12.618568830660204 	 -7.173249259946908e-10
13.848863713938732 	 -7.176352483507764e-10
15.199110829529339 	 -7.180074279545451e-10
16.68100537200059 	 -7.184534862788542e-10
18.30738280295368 	 -7.189877214443467e-10
20.09233002565047 	 -7.196271719425946e-10
22.051307399030456 	 -7.203918845683211e-10
24.20128264794382 	 -7.213056613514076e-10
26.560877829466868 	 -7.223964223330569e-10
29.150530628251772 	 -7.236971979358272e-10
31.992671377973828 	 -7.252463964559409e-10
35.11191734215131 	 -7.270891730014372e-10
38.53528593710529 	 -7.292783229152354e-10
42.29242874389499 	 -7.318746933166948e-10
46.4158883361278 	 -7.349493288091539e-10
50.94138014816378 	 -7.385839832215163e-10
55.90810182512222 	 -7.428728232695348e-10
61.35907273413173 	 -7.47923274424768e-10
67.34150657750821 	 -7.538587628901738e-10
73.90722033525779 	 -7.608184694821028e-10
81.11308307896873 	 -7.68959720089233e-10
89.02150854450383 	 -7.7846045841244e-10
97.70099572992251 	 -7.895187317179713e-10
107.22672220103232 	 -8.0235648047965e-10
117.68119524349979 	 -8.172144329736688e-10
129.1549665014884 	 -8.343630160305451e-10
141.74741629268047 	 -8.540876655934522e-10
155.56761439304722 	 -8.767036877472592e-10
170.73526474706904 	 -9.021730000558773e-10
187.3817422860385 	 -9.301607261102336e-10
205.65123083486515 	 -9.607756203114273e-10
225.7019719633919 	 -9.94471520739453e-10
247.70763559917114 	 -1.030806285330514e-9
271.85882427329403 	 -1.0704275912454538e-9
298.364724028334 	 -1.11268413762656e-9
327.45491628777285 	 -1.1589354684703772e-9
359.38136638046257 	 -1.207846895870933e-9
394.4206059437656 	 -1.2603186386847468e-9
432.8761281083057 	 -1.3120619246414705e-9
475.0810162102798 	 -1.3631359395071691e-9
521.4008287999684 	 -1.4114866552036772e-9
572.236765935022 	 -1.4568313696067124e-9
628.0291441834253 	 -1.5004200588230741e-9
689.2612104349695 	 -1.533316823346378e-9
756.463327554629 	 -1.5553310691814684e-9
830.2175681319744 	 -1.5595531586831269e-9
911.1627561154896 	 -1.5382397169866491e-9
1000.0 	 -1.4848905763849336e-9
