###############
#    GaPSE    #
############### 
#
#
# This is an integration map on mu of the ξ multipole auto_doppler GR effect
# concerning the luminosity distance perturbations.
# The Cosmology considered had the following paremeters:
# 
# - Matter Power Spectrum input file: "../test/datatest/file_pk.txt"
# - Background data input file: "../test/datatest/WideA_ZA_background.dat"
# - F window function input file: "../test/datatest/F_REFERENCE_pi2.txt"
# - Integrated F window function input file: "../test/datatest/IntegrF_REFERENCE_pi2.txt"
#
# - Basic CosmoParams considered: 
#	 z_min = 0.05 	 z_max = 0.2
#	 θ_max = 1.5707963267948966 [rad] 	 h_0 = 0.7
#	 Ω_b = 0.0489 	 Ω_cdm = 0.25102 	 Ω_M0 = 0.29992
#	 b = 1.0 	 f_evo = 0.0 	 s_b = 0.0
#
# - CosmoParams about the Input Power Spectrum: 
#	 fit_left_min = 1.0e-6 	 fit_right_min = 10.0 	 
#	 fit_left_max = 3.0e-6 	 fit_right_max = 20.0 	 
#
# - CosmoParams about the Input Power Spectrum Tools: 
#	 k_max = 10.0 	 fit_max = 0.5 	 N = 1024 	 
#	 con = true 	 k_min = 1.0e-8 	 fit_min = 0.05 	 
#
# - CosmoParams about the Integrated Window Function F: 
#	 ss_step = 21.768735478453323 	 N = 1000 	 rtol = 0.01 	 
#	 llim = 0.0 	 atol = 0.0 	 rlim = Inf 	 
#	 ss_stop = 0.0 	 trap = true 	 ss_start = 0.0 	 
#
# - Computed quantities: 
# 	 effective redshift z_eff = 0.15045636096023224 
# 	 comoving s_min = 148.1920001465757 Mpc/h_0
# 	 comoving s_max = 571.7022420258767 Mpc/h_0
# 	 comoving s_eff = 435.3747095690664 Mpc/h_0
# 	 Volume of the survey V_survey = 3.845366167995967e8 Mpc^3/h_0^3
# 	 σ_0 = 15.593462966741178
# 	 σ_1 = 15.074895881392285
# 	 σ_2 = 100.85852368830226
# 	 σ_3 = 3735.1226181519773
# 	 (where σ_i = \int_{k_{min}}^{k_{max}}\frac{dq}{2 π^2} q^{2-i} P(q))
# 
# computational time needed (in s) : 0.0297
# kwards passed: 
# 		L = 0
# 		μ_atol = 0.0
# 		enhancer = 1.0e8
# 		use_windows = false
# 		pr = false
# 		N_μs = 30
# 		N_log = 1000
# 		μ_rtol = 0.01
#
# NOTE: the computation is done not in s1 = s_eff, because you specified in input s1 = 370.3747095690664 !
# 
# s [Mpc/h_0] 	 	 xi
1.0 	 5.671509574556664e-5
1.0203433907304518 	 5.669012518282275e-5
1.0411006350073153 	 5.6663721426465756e-5
1.0622801520149907 	 5.663661126707871e-5
1.0838905322126353 	 5.660877845704895e-5
1.1059405408184741 	 5.658020634055157e-5
1.1284391213649916 	 5.6550877835812774e-5
1.1513953993264474 	 5.6520775432589044e-5
1.17481868582019 	 5.648988119879963e-5
1.1987184813832659 	 5.6458176809258004e-5
1.2231044798258592 	 5.642564421797351e-5
1.2479865721631227 	 5.6392265437555926e-5
1.2733748506269942 	 5.635802210463549e-5
1.2992796127596298 	 5.6322895438572466e-5
1.3257113655901092 	 5.628686625505795e-5
1.3526808298961095 	 5.624991497141697e-5
1.3801989445522778 	 5.6212021572740105e-5
1.4082768709670619 	 5.6173165675736584e-5
1.436925997609803 	 5.613332684804623e-5
1.4661579446299233 	 5.609248507000177e-5
1.4959845685700859 	 5.6050619982066276e-5
1.5264179671752336 	 5.6007710891420655e-5
1.557470484299461 	 5.596373671431584e-5
1.589154714912711 	 5.591867600085672e-5
1.62148351020932 	 5.5872506953642934e-5
1.6544699828204927 	 5.582520737435217e-5
1.6881275121328136 	 5.57767549055941e-5
1.722469749714957 	 5.572712760156517e-5
1.7575106248547918 	 5.5676303521308185e-5
1.7932643502091334 	 5.562426036323258e-5
1.8297454275684273 	 5.557097554365588e-5
1.8669686537387096 	 5.55164261597705e-5
1.9049491265432217 	 5.546058899582917e-5
1.9437022509461233 	 5.5403440562383895e-5
1.9832437453007787 	 5.5344957064522676e-5
2.023589647725157 	 5.528511509042175e-5
2.0647563226069274 	 5.5223891482356946e-5
2.1067604672408904 	 5.5161262899042565e-5
2.149619118601441 	 5.509720572413806e-5
2.1933496602527995 	 5.503169611806813e-5
2.237969829399826 	 5.4964710005816114e-5
2.283497724082269 	 5.4896223063274575e-5
2.329951810515372 	 5.482621076693082e-5
2.3773509305798095 	 5.475464865597298e-5
2.425714309463998 	 5.468151289580881e-5
2.475061563461872 	 5.460677954342762e-5
2.5254127079293 	 5.4530424498744e-5
2.5767881654023537 	 5.4452423457868935e-5
2.629208773880738 	 5.437275193541464e-5
2.6826957952797255 	 5.4291385265679635e-5
2.7372709240540414 	 5.420829857434078e-5
2.7929562959971777 	 5.4123466927237404e-5
2.849774497219723 	 5.4036865954497645e-5
2.9077485733103408 	 5.3948471489768105e-5
2.9669020386831066 	 5.3858259171663614e-5
3.0272588861150114 	 5.3766204475453706e-5
3.088843596477481 	 5.367228268220488e-5
3.1516811486658765 	 5.3576468872083625e-5
3.2157970297309855 	 5.3478737931611865e-5
3.2812172452166286 	 5.337906452425898e-5
3.347968329707567 	 5.327742365691407e-5
3.4160773575919867 	 5.317379072700076e-5
3.4855719540429293 	 5.306814097271059e-5
3.5564803062231287 	 5.29604493791808e-5
3.628831174717783 	 5.285069069285495e-5
3.7026539051999108 	 5.2738839400002525e-5
3.7779784403330265 	 5.262486969811171e-5
3.8548353319159436 	 5.250875551981636e-5
3.93325575327466 	 5.239047072033465e-5
4.013271511906324 	 5.2269989709595505e-5
4.094915062380426 	 5.214728674236127e-5
4.178219519502442 	 5.2022335809849774e-5
4.263218671745282 	 5.1895110593135314e-5
4.349946994953953 	 5.176558448395599e-5
4.438439666329056 	 5.163373059205763e-5
4.528732578694724 	 5.149952172518164e-5
4.620862355056837 	 5.13629305223735e-5
4.714866363457394 	 5.122393007596276e-5
4.810782732131072 	 5.1082493734888765e-5
4.908650364970124 	 5.0938594664744604e-5
5.008508957303886 	 5.0792205926798275e-5
5.110399011999287 	 5.064330049394119e-5
5.214361855888903 	 5.049185131077131e-5
5.320439656533214 	 5.0337831363161875e-5
5.428675439323861 	 5.018121372561242e-5
5.539113104934833 	 5.0021972126200455e-5
5.651797447128687 	 4.9860081240676445e-5
5.766774170924997 	 4.9695516190092966e-5
5.884089911138401 	 4.952825253995764e-5
6.003792251293798 	 4.935826641537617e-5
6.125929742926327 	 4.918553458686001e-5
6.250551925273973 	 4.901003456252404e-5
6.377709345370798 	 4.8831744696798775e-5
6.507453578548931 	 4.865064444566053e-5
6.639837249357628 	 4.846671511519715e-5
6.774914052907918 	 4.827993933186094e-5
6.912738776651453 	 4.8090300918850936e-5
7.053367322602418 	 4.78977849278348e-5
7.196856730011519 	 4.770237768408141e-5
7.343265198501227 	 4.750406680820068e-5
7.4926521116716644 	 4.73028411984746e-5
7.645078061186745 	 4.709869108449233e-5
7.800604871350273 	 4.689160856515382e-5
7.959295624182016 	 4.668158744520633e-5
8.121214685003926 	 4.6468622639768076e-5
8.286427728546844 	 4.625271009936088e-5
8.455001765588323 	 4.603384668177865e-5
8.627005170132344 	 4.581203003971106e-5
8.802507707141976 	 4.5587258516636973e-5
8.981580560836177 	 4.53595310069263e-5
9.164296363562299 	 4.512884726946463e-5
9.350729225255904 	 4.4895208178891344e-5
9.54095476349994 	 4.465861508406193e-5
9.735050134195385 	 4.441906966446061e-5
9.933094062855858 	 4.417657398310334e-5
10.135166876538864 	 4.3931130542723756e-5
10.341350536426628 	 4.368274240094816e-5
10.55172867106972 	 4.343141334990651e-5
10.766386610307002 	 4.3177148229666494e-5
10.985411419875584 	 4.29199538517844e-5
11.208891936724877 	 4.2659838746612934e-5
11.436918805049082 	 4.239681318363724e-5
11.66958451305265 	 4.2130889403435305e-5
11.906983430463704 	 4.1862081851919895e-5
12.149211846810644 	 4.1590407346121386e-5
12.396368010477348 	 4.131588516727271e-5
12.648552168552959 	 4.103853711161628e-5
12.905866607492335 	 4.0758387941668554e-5
13.168415694603645 	 4.047546522708103e-5
13.436305920379983 	 4.018979854408326e-5
13.70964594169215 	 3.9901419141628296e-5
13.988546625860149 	 3.961035957410749e-5
14.273121095621166 	 3.931665334669607e-5
14.563484775012437 	 3.902033461209937e-5
14.859755436187502 	 3.872143793794194e-5
15.162053247184822 	 3.8419998523097586e-5
15.470500820668212 	 3.811605270849775e-5
15.785223263658844 	 3.780963761171693e-5
16.106348228278875 	 3.750079135685382e-5
16.434005963527465 	 3.718955356810163e-5
16.768329368110084 	 3.6875965887122896e-5
17.10945404434246 	 3.656007245789911e-5
17.45751835315122 	 3.6241920316198135e-5
17.81266347019341 	 3.592155962984281e-5
18.175033443117602 	 3.559904428735911e-5
18.544775249989968 	 3.527443117017078e-5
18.922038858908927 	 3.494777930076229e-5
19.306977288832506 	 3.4619149118851376e-5
19.699746671643176 	 3.428860179048963e-5
20.100506315475336 	 3.39561986332873e-5
20.509418769330967 	 3.362200080933524e-5
20.92664988900992 	 3.328606942384145e-5
21.352368904381418 	 3.29484664063663e-5
21.786748488024 	 3.2609255417025006e-5
22.229964825261945 	 3.2268502149006726e-5
22.682197685626452 	 3.192627507760003e-5
23.143630495770502 	 3.158264587026726e-5
23.614450413867154 	 3.1237689310351466e-5
24.094848405521336 	 3.089148267074096e-5
24.58501932122586 	 3.054410467722463e-5
25.08516197539326 	 3.0195634567982096e-5
25.59547922699536 	 2.984615169846462e-5
26.11617806184329 	 2.9495734680165203e-5
26.647469676541412 	 2.9144461644064577e-5
27.189569564149163 	 2.8792411295766306e-5
27.742697601585455 	 2.8439664218173647e-5
28.307078138811264 	 2.8086303891909682e-5
28.882940089826537 	 2.7732416945453625e-5
29.470517025518113 	 2.7378092471932622e-5
30.07004726839665 	 2.702342108801654e-5
30.6817739892608 	 2.66684930692173e-5
31.30594530582775 	 2.631339699548739e-5
31.942814383370344 	 2.59582199270389e-5
32.592639537401546 	 2.5603048745718577e-5
33.255684338447686 	 2.5247971966208288e-5
33.93221771895328 	 2.48930809656541e-5
34.62251408236071 	 2.4538469828041284e-5
35.32685341440875 	 2.4184234038209156e-5
36.04552139669545 	 2.3830468515850916e-5
36.77880952255129 	 2.347726570293019e-5
37.527015215269415 	 2.3124715983185552e-5
38.29044194874124 	 2.2772909718017583e-5
39.06939937054617 	 2.2421939425654632e-5
39.86420342754526 	 2.207190033296186e-5
40.67517649403002 	 2.1722888660510738e-5
41.50264750247816 	 2.1374998986780443e-5
42.346952076969295 	 2.1028323174493042e-5
43.20843266931478 	 2.068295105552803e-5
44.087438697957076 	 2.033897310669681e-5
44.98432668969446 	 1.9996482328831036e-5
45.89946042428919 	 1.9655573082483507e-5
46.83321108201742 	 1.9316337818216847e-5
47.78595739422063 	 1.8978864972489142e-5
48.75808579691997 	 1.8643240494575813e-5
49.74999058755561 	 1.830955173358255e-5
50.76207408491456 	 1.7977888725777836e-5
51.7947467923121 	 1.7648341059089676e-5
52.84842756409293 	 1.7320994326449438e-5
53.923543775519256 	 1.6995930314036144e-5
55.02053149611525 	 1.667323084554318e-5
56.139835666537856 	 1.6352979934877515e-5
57.2819102790456 	 1.6035260790418528e-5
58.447218561638884 	 1.572015228437726e-5
59.63623316594643 	 1.540773036738466e-5
60.84943635893361 	 1.5098072264050592e-5
62.08732021851114 	 1.4791256589158388e-5
63.350386833123 	 1.4487358803413991e-5
64.63914850539449 	 1.4186449845286012e-5
65.95412795992341 	 1.3888600810713897e-5
67.29585855529835 	 1.3593885206785028e-5
68.66488450043002 	 1.3302374526417967e-5
70.06176107528358 	 1.3014137011563015e-5
71.48705485610165 	 1.2729242535239232e-5
72.94134394520857 	 1.2447764212041323e-5
74.4252182054902 	 1.216977324666951e-5
75.93927949964363 	 1.1895339256316747e-5
77.48414193429387 	 1.1624535757693698e-5
79.06043210907701 	 1.135743747502049e-5
80.6687893707903 	 1.1094114544861107e-5
82.30986607271281 	 1.083463452170741e-5
83.98432783920119 	 1.0579058118507106e-5
85.69285383566837 	 1.0327422660349046e-5
87.43613704405489 	 1.0079727746364435e-5
89.21488454390344 	 9.835913067971874e-6
91.02981779915217 	 9.595820923692934e-6
92.88167295076218 	 9.359168061042143e-6
94.77120111529759 	 9.125533981335389e-6
96.69916868958028 	 8.894373087011729e-6
98.66635766154229 	 8.665079484139801e-6
100.67356592740157 	 8.437082610587117e-6
102.72160761529055 	 8.209947155028985e-6
104.81131341546852 	 7.983458658240258e-6
106.94353091725131 	 7.757652883115538e-6
109.11912495279508 	 7.532797346740464e-6
111.33897794787474 	 7.309336651740838e-6
113.60399027979757 	 7.087815498852666e-6
115.9150806425979 	 6.86881440180806e-6
118.27318641966205 	 6.65289214290274e-6
120.67926406393289 	 6.440552662469232e-6
123.1342894858488 	 6.232225995463818e-6
125.63925844917594 	 6.028262053261426e-6
128.1951869748918 	 5.828933589380885e-6
130.80311175328532 	 5.63444256866188e-6
133.4640905644413 	 5.4449290736577576e-6
136.17920270727822 	 5.260481044955611e-6
138.94954943731375 	 5.08114402473834e-6
141.7762544133372 	 4.9069276985394345e-6
144.66046415316774 	 4.737813948922858e-6
147.6033484986841 	 4.573762053330604e-6
150.60610109031583 	 4.4147136330403205e-6
153.66993985118614 	 4.260596477001149e-6
156.79610748110377 	 4.11132799077799e-6
159.98587196060572 	 3.966817824963709e-6
163.24052706525248 	 3.826969512097391e-6
166.56139289038575 	 3.691682679858952e-6
169.9498163865631 	 3.560853629756263e-6
173.4071719058836 	 3.434376411647138e-6
176.93486175942755 	 3.3121441854719965e-6
180.53431678603818 	 3.1940488890630663e-6
184.20699693267164 	 3.079980963636173e-6
187.95439184655604 	 2.969830057705874e-6
191.7780214793951 	 2.8634846178280134e-6
195.67943670386333 	 2.760834007314128e-6
199.66021994264466 	 2.6617719524665317e-6
203.72198581026595 	 2.56619832323888e-6
207.8663817679877 	 2.4740212631414106e-6
212.09508879201903 	 2.38515555096148e-6
216.4098220553251 	 2.299518304715256e-6
220.81233162330403 	 2.2170273365476125e-6
225.30440316361893 	 2.13759798895447e-6
229.8878586704678 	 2.061143714129324e-6
234.56455720358792 	 1.9875775234703253e-6
239.33639564229586 	 1.9168120460223344e-6
244.20530945486522 	 1.8487627630486577e-6
249.17327348355636 	 1.7833479604274986e-6
254.24230274561796 	 1.7204898685466145e-6
259.4144532505821 	 1.6601158938680776e-6
264.6918228341851 	 1.602205380661603e-6
270.0765520092563 	 1.546616281447214e-6
275.570824833914 	 1.4933266933619924e-6
281.1768697974231 	 1.4422861828034243e-6
286.8969607240773 	 1.3934514553290745e-6
292.7334176954665 	 1.3467870382863632e-6
298.6886079915058 	 1.3022694200839556e-6
304.7649470506117 	 1.2599388912009784e-6
310.96489944940794 	 1.2197126719966074e-6
317.2909799023628 	 1.1816546964308535e-6
323.74575428176433 	 1.1458268339165762e-6
330.3318406584433 	 1.1123749852947985e-6
337.0519103636672 	 1.0814115017908726e-6
343.9086890726404 	 1.0533142602377372e-6
350.9049579100428 	 1.0285930321117718e-6
358.04355457805946 	 1.0088247285197734e-6
365.3273745073606 	 1.0122728112130832e-6
372.7593720314942 	 9.95539219913622e-7
380.3425615851686 	 9.899141411406663e-7
388.0800189269164 	 9.609800769748353e-7
395.9748823866281 	 9.248760538312988e-7
404.0303541384638 	 8.854722776807428e-7
412.2497014996652 	 8.443556635903104e-7
420.6362582557853 	 8.02646010014289e-7
429.1934260128778 	 7.610166196704217e-7
437.9246755771989 	 7.200157470684182e-7
446.83354836297246 	 6.799416498582654e-7
455.9236578287945 	 6.410539198583331e-7
465.1986909432623 	 6.035250992118039e-7
474.6624096804161 	 5.67482688596898e-7
484.3186525456024 	 5.329648948256018e-7
494.1713361323833 	 5.000224894069539e-7
504.22445671111416 	 4.6866937312615256e-7
514.482091849838 	 4.388973036478123e-7
524.9484020681592 	 4.1068524732572853e-7
535.6276325247584 	 3.8399826076258454e-7
546.5241147392362 	 3.587953841124665e-7
557.6422683489906 	 3.3502770087635783e-7
568.9866029018299 	 3.1264314786505924e-7
580.5617196850541 	 2.9158602942579264e-7
592.3723135917498 	 2.717992982021797e-7
604.423175025049 	 2.5322476449779513e-7
616.7191918411236 	 2.358043611418152e-7
629.2653513317158 	 2.1948017251904458e-7
642.0667422469924 	 2.0419559267137434e-7
655.1285568595509 	 1.8989480449960361e-7
668.4560930704215 	 1.7652390578503628e-7
682.0547565579047 	 1.6403051543069953e-7
695.9300629701252 	 1.5236414611092624e-7
710.0876401621941 	 1.414763815083862e-7
724.5332304788785 	 1.3132077650143395e-7
739.2726930837066 	 1.2185297054460015e-7
754.3120063354615 	 1.1303075086312859e-7
769.6572702130153 	 1.0481391085039235e-7
785.3147087894913 	 9.71643154002168e-8
801.2906727567666 	 9.004584457015314e-8
817.5916420013247 	 8.34242727697537e-8
834.224228232509 	 7.726739468473204e-8
851.1951776642521 	 7.154459486225214e-8
868.511373751353 	 6.622737238894154e-8
886.1798399814178 	 6.128848502532062e-8
904.2077427236087 	 5.6702736333260226e-8
922.6023941353355 	 5.244611115848988e-8
941.3712551280806 	 4.8496308277609945e-8
960.5219383935666 	 4.483228720359387e-8
980.0622114914786 	 4.143435957667989e-8
1000.0 	 3.828414285717073e-8
