# This is an integration map on mu of the ξ multipole concerning the PP Doppler.
###############
#    GaPSE    #
############### 
#
# The Cosmology considered had the following paremeters:
# 
# - Matter Power Spectrum input file: "../test/datatest/file_pk.txt"
# - Background data input file: "../test/datatest/WideA_ZA_background.dat"
# - F window function input file: "../test/datatest/F_REFERENCE_pi2.txt"
# - Integrated F window function input file: "../test/datatest/IntegrF_REFERENCE_pi2.txt"
#
# - Basic CosmoParams considered: 
#	 z_min = 0.05 	 z_max = 0.2
#	 θ_max = 1.5707963267948966 [rad] 	 h_0 = 0.7
#	 Ω_b = 0.0489 	 Ω_cdm = 0.25102 	 Ω_M0 = 0.29992
#	 b = 1.0 	 f_evo = 0.0 	 s_b = 0.0
#
# - CosmoParams about the Input Power Spectrum: 
#	 fit_left_min = 1.0e-6 	 fit_right_min = 10.0 	 
#	 fit_left_max = 3.0e-6 	 fit_right_max = 20.0 	 
#
# - CosmoParams about the Input Power Spectrum Tools: 
#	 k_max = 10.0 	 fit_max = 0.5 	 N = 1024 	 
#	 con = true 	 k_min = 1.0e-8 	 fit_min = 0.05 	 
#
# - CosmoParams about the Integrated Window Function F: 
#	 ss_step = 21.768735478453323 	 N = 1000 	 rtol = 0.01 	 
#	 llim = 0.0 	 atol = 0.0 	 rlim = Inf 	 
#	 ss_stop = 0.0 	 trap = true 	 ss_start = 0.0 	 
#
# - Computed quantities: 
# 	 effective redshift z_eff = 0.15045636096023224 
# 	 comoving s_min = 148.1920001465757 Mpc/h_0
# 	 comoving s_max = 571.7022420258767 Mpc/h_0
# 	 comoving s_eff = 435.3747095690664 Mpc/h_0
# 	 Volume of the survey V_survey = 3.845366167995967e8 Mpc^3/h_0^3
# 	 σ_0 = 15.593462966741178
# 	 σ_1 = 15.074895881392285
# 	 σ_2 = 100.85852368830226
# 	 σ_3 = 3735.1226181519773
# 	 (where σ_i = \int_{k_{min}}^{k_{max}}\frac{dq}{2 π^2} q^{2-i} P(q))
# 
# computational time needed (in s) : 4.8962
# kwards passed: 
# 		use_windows = true
# 		L = 2
# 		μ_atol = 0.0
# 		enhancer = 1.0e8
# 		pr = false
# 		N_log = 100
# 		μ_rtol = 0.01
# 
# s [Mpc/h_0] 	 	 xi
1.0 	 -6.870931511365953e-7
1.0233717986325197 	 -7.013265677685047e-7
1.0472898382363585 	 -7.159675433714331e-7
1.071766885445503 	 -7.310164561428828e-7
1.096816005273138 	 -7.464823502592823e-7
1.1224505680853065 	 -7.623743601273539e-7
1.1486842567375537 	 -7.787017081108239e-7
1.1755310738783695 	 -7.95473654529936e-7
1.2030053494233244 	 -8.126909184082442e-7
1.2311217482038903 	 -8.303800500167223e-7
1.2598952777950274 	 -8.48541867481953e-7
1.2893412965257152 	 -8.671857799436069e-7
1.3194755216767062 	 -8.863212277299335e-7
1.350314037869873 	 -9.067771144043576e-7
1.3818733056536323 	 -9.269228613362205e-7
1.4141701702890235 	 -9.475884383677527e-7
1.4472218707411348 	 -9.687832686119928e-7
1.4810460488806751 	 -9.913367988371305e-7
1.5156607589006033 	 -1.0136170310548377e-6
1.5510844769528402 	 -1.036454419244605e-6
1.587336111010209 	 -1.0598581676777585e-6
1.6244350109588668 	 -1.0838373681436573e-6
1.6624009789266123 	 -1.1084009927591485e-6
1.701254279852589 	 -1.13355793896975e-6
1.7410156523040161 	 -1.159316972520806e-6
1.7817063195457306 	 -1.1856866886287256e-6
1.823348000868441 	 -1.2126755398648661e-6
1.8659629231817458 	 -1.2402918430486089e-6
1.9095738328780973 	 -1.2685437098554491e-6
1.9542040079740532 	 -1.297439038467007e-6
1.9998772705352859 	 -1.326985564759786e-6
2.04661799939199 	 -1.3571908079697357e-6
2.0944511431514696 	 -1.3880620293153219e-6
2.143402233514857 	 -1.4196062639636161e-6
2.193497398905059 	 -1.4518303399408337e-6
2.2447633784132237 	 -1.4847408069177866e-6
2.2972275360711523 	 -1.5183439316860267e-6
2.3509178754572866 	 -1.5526457631258844e-6
2.405863054644066 	 -1.5876520851722302e-6
2.4620924014946257 	 -1.623368378565267e-6
2.519635929317015 	 -1.659799863935736e-6
2.578524352884274 	 -1.6969515391707065e-6
2.6387891048289336 	 -1.6389008669148632e-6
2.7004623524206823 	 -1.677782852622408e-6
2.763577014736159 	 -1.717404532114615e-6
2.8281667802300325 	 -1.7577699739511127e-6
2.894266124716751 	 -1.7988829916350802e-6
2.961910329772554 	 -1.8407471932036595e-6
3.0311355015675785 	 -1.8833660351917939e-6
3.1019785901380974 	 -1.9267427773506206e-6
3.1744774091091927 	 -1.9708804993168023e-6
3.248670655878376 	 -2.0157821922784303e-6
3.3245979322709407 	 -2.0614507480785887e-6
3.4022997656780687 	 -2.107888939396563e-6
3.4818176306889654 	 -2.1550994809014253e-6
3.563193971228585 	 -2.20308510079844e-6
3.646472223212748 	 -2.2518484883801254e-6
3.731696837732753 	 -2.301392306863317e-6
3.8189133047818533 	 -2.351719291291397e-6
3.908168177536266 	 -2.312070430752865e-6
3.9995090972036653 	 -2.364355740825924e-6
4.09298481845244 	 -2.417440032572988e-6
4.188645235435271 	 -2.471326330577515e-6
4.286541408420927 	 -2.5260176710075008e-6
4.386725591048498 	 -2.5815170676591584e-6
4.489251258218605 	 -2.6378275564845308e-6
4.594173134636477 	 -2.694952122879115e-6
4.701547224022132 	 -2.7528935835626044e-6
4.811430839003259 	 -2.811654548355666e-6
4.923882631706739 	 -2.8523728733277765e-6
5.0389626250651505 	 -2.9128811205111334e-6
5.156732244854966 	 -2.9742164358913966e-6
5.277254352483538 	 -3.036379653254096e-6
5.400593278542371 	 -3.0993708402599146e-6
5.526814857144603 	 -3.1631890628432645e-6
5.655986461065006 	 -3.2278322541250917e-6
5.788177037701276 	 -3.2932971326182566e-6
5.923457145875805 	 -3.359578912549873e-6
6.061898993497573 	 -3.4266710995333894e-6
6.203576476104273 	 -3.494565437734443e-6
6.348565216305219 	 -3.5632517312932464e-6
6.496942604146123 	 -3.6327176022426623e-6
6.648787838417265 	 -3.702948420991488e-6
6.804181968927099 	 -3.81962463576991e-6
6.963207939763885 	 -3.891322056715157e-6
7.125950633568409 	 -3.963725567523715e-6
7.292496916841446 	 -4.036811277967268e-6
7.462935686310136 	 -4.110553175453997e-6
7.637357916378021 	 -4.1849231394075056e-6
7.815856707684089 	 -4.259891205521621e-6
7.99852733679671 	 -4.335426006718492e-6
8.185467307069027 	 -4.41149488740893e-6
8.37677640068292 	 -4.488064172733398e-6
8.572556731909325 	 -4.565099692725757e-6
8.77291280161336 	 -4.642567109482538e-6
8.977951553033323 	 -4.7204320356031645e-6
9.187782428863335 	 -4.798660338145487e-6
9.402517429670132 	 -4.877218530624295e-6
9.62227117367514 	 -4.956073634749616e-6
9.847160957933774 	 -5.035193065233029e-6
10.077306820944612 	 -5.114544663488578e-6
10.312831606721847 	 -5.194096409706167e-6
10.553861030365235 	 -5.273815781800224e-6
10.800523745162529 	 -5.353669278710095e-6
11.052951411260215 	 -5.433622081677958e-6
11.311278765939214 	 -5.513637206028934e-6
11.57564369553304 	 -5.593674822545495e-6
11.846187309026837 	 -5.6736920025024845e-6
12.123054013376523 	 -5.753642446734018e-6
12.406391590588319 	 -5.833476121307199e-6
12.696351276599735 	 -5.913139461581531e-6
12.993087842004158 	 -5.992576140433385e-6
13.29675967466212 	 -6.071727485629294e-6
13.607528864243331 	 -6.150533225541813e-6
13.925561288744627 	 -6.228932757611913e-6
14.251026703029977 	 -6.306866207570572e-6
14.584098829439856 	 -6.384274885127104e-6
14.924955450518299 	 -6.461101835228851e-6
15.27377850390714 	 -6.5372923356792305e-6
15.630754179458165 	 -6.612793193137975e-6
15.996073018614878 	 -6.687551737626047e-6
16.369930016117028 	 -6.761514948271856e-6
16.752524724082154 	 -6.834628259217156e-6
17.14406135851971 	 -6.906833963411386e-6
17.544748908334597 	 -6.978070443933375e-6
17.95480124687831 	 -7.048272480061528e-6
18.374437246107266 	 -7.117371515280645e-6
18.803880893409158 	 -7.185296735092288e-6
19.2433614111598 	 -7.2519772057484286e-6
19.693113379074227 	 -7.31734396329512e-6
20.15337685941733 	 -7.381330965668579e-6
20.624397525140918 	 -7.443875728700645e-6
21.106426791015547 	 -7.504919400156627e-6
21.59972194782718 	 -7.56440481163806e-6
22.104546299710215 	 -7.62002596498605e-6
22.621169304690252 	 -7.672820093858818e-6
23.14986671851161 	 -7.723867922555335e-6
23.690920741826332 	 -7.773103147783671e-6
24.244620170823282 	 -7.820457521407809e-6
24.81126055137769 	 -7.865864369755945e-6
25.39114433680347 	 -7.909260981656775e-6
25.984581049292483 	 -7.950589742159953e-6
26.591887445126936 	 -7.989797996360212e-6
27.213387683753073 	 -8.02683587886957e-6
27.849413500806442 	 -8.061652267309627e-6
28.500304385181067 	 -8.094192349028473e-6
29.16640776023704 	 -8.124398387452163e-6
29.84807916924326 	 -8.152212097385429e-6
30.545682465154318 	 -8.177578334474247e-6
31.259590004822794 	 -8.200448660825381e-6
31.990182847750656 	 -8.220781814730955e-6
32.73785095948577 	 -8.238539512887192e-6
33.50299341977232 	 -8.253681871390698e-6
34.28601863556587 	 -8.26616589410261e-6
35.08734455902713 	 -8.27594707306267e-6
35.90739891061055 	 -8.28298395959236e-6
36.7466194073669 	 -8.287242881745102e-6
37.605453996581716 	 -8.288698144138953e-6
38.48436109487431 	 -8.287326058060787e-6
39.38380983288489 	 -8.283099786278993e-6
40.30428030568053 	 -8.275990341862287e-6
41.24626382901352 	 -8.265971876332148e-6
42.210263201569006 	 -8.253026566825099e-6
43.196792973341736 	 -8.237144330096749e-6
44.20637972028532 	 -8.217717067803526e-6
45.23956232538053 	 -8.19506384290706e-6
46.29689226627266 	 -8.169489995810568e-6
47.37893390963144 	 -8.140991819470591e-6
48.48626481239081 	 -8.109574899511099e-6
49.61947603002903 	 -8.075246229849962e-6
50.77917243205401 	 -8.038009191158216e-6
51.965973024861974 	 -7.997869292020875e-6
53.180511282142 	 -7.954840935011852e-6
54.42343548300266 	 -7.908945100807247e-6
55.69540905800133 	 -7.860201512168511e-6
56.99711094326075 	 -7.808628405769853e-6
58.329235942862034 	 -7.75425095011375e-6
59.69249509970734 	 -7.697102489356143e-6
61.08761607505036 	 -7.637215738988736e-6
62.51534353689712 	 -7.5746210862642445e-6
63.97643955748427 	 -7.509356051859035e-6
65.47168402004736 	 -7.441185347061056e-6
67.00187503509586 	 -7.368194644431701e-6
68.56782936641741 	 -7.2927236529777965e-6
70.1703828670383 	 -7.214819813727106e-6
71.81039092537353 	 -7.134529102955623e-6
73.48872892180388 	 -7.051891994492653e-6
75.2062926959241 	 -6.966953027588779e-6
76.96399902471158 	 -6.879756201378525e-6
78.7627861118706 	 -6.790340037649269e-6
80.60361408861345 	 -6.6987492830434656e-6
82.48746552614585 	 -6.605035865040353e-6
84.41534596012986 	 -6.509267541903973e-6
86.38828442740449 	 -6.411558452108645e-6
88.40733401525063 	 -6.310085594025095e-6
90.47357242349298 	 -6.206209130814689e-6
92.58810253973955 	 -6.101504750918353e-6
94.75205302806543 	 -5.996690971402003e-6
96.9665789314552 	 -5.892659051117999e-6
99.2328622883255 	 -5.790328670465823e-6
101.5521127634568 	 -5.690440029101178e-6
103.9255682936713 	 -5.593362231847242e-6
106.35449574860112 	 -5.498988411506685e-6
108.84019160690066 	 -5.406777448671225e-6
111.38398264826195 	 -5.3149454872531986e-6
113.98722666160525 	 -5.223544786504536e-6
116.65131316981962 	 -5.13164420059638e-6
119.3776641714437 	 -5.038450927116486e-6
122.16773489967919 	 -4.943358504274838e-6
125.0230145991456 	 -4.845964673269497e-6
127.94502732078735 	 -4.746050729665937e-6
130.93533273536107 	 -4.64353889003346e-6
133.99552696593383 	 -4.538410333680038e-6
137.1272434398401 	 -4.43098801495999e-6
140.33215376054847 	 -4.3214913115200685e-6
143.61196859990787 	 -4.210183867710731e-6
146.9684386112446 	 -4.097357419557133e-6
150.40335536380252 	 -3.9833171265901475e-6
153.91855229902055 	 -3.868541350471806e-6
157.5159057091623 	 -3.753409702926599e-6
161.1973357388157 	 -3.638003619763643e-6
164.96480740980206 	 -3.522602178428254e-6
168.82033167003627 	 -3.4074688002000187e-6
172.76596646690365 	 -3.2928510972718038e-6
176.8038178457207 	 -3.1772797979313122e-6
180.93604107387165 	 -3.0618898970038755e-6
185.1648417912154 	 -2.947796350218173e-6
189.49247718738218 	 -2.835177663324786e-6
193.9212572065829 	 -2.72666925173693e-6
198.45354578058033 	 -2.6178602228409575e-6
203.09176209047348 	 -2.511327547427564e-6
207.83838185797572 	 -2.4067945576357355e-6
212.69593866686898 	 -2.304338886832785e-6
217.6670253153459 	 -2.2040260944819643e-6
222.75429519995586 	 -2.104805621627297e-6
227.960463731898 	 -2.0079211629710654e-6
233.28830978641582 	 -1.9134243853218065e-6
238.7406771860647 	 -1.8213575202684174e-6
244.32047621864893 	 -1.7323886178522537e-6
250.0306851906324 	 -1.6459846373615218e-6
255.87435201685892 	 -1.5620648388536006e-6
261.8545958474233 	 -1.4805210107634905e-6
267.9746087325692 	 -1.4005227499106712e-6
274.23765732649497 	 -1.3230760701128609e-6
280.6470846309839 	 -1.2481623397227671e-6
287.2063117797828 	 -1.1766287094779101e-6
293.9188398646887 	 -1.1080308633558621e-6
300.7882518043099 	 -1.0418350332735798e-6
307.81821425650804 	 -9.776586067827577e-7
315.0124795755328 	 -9.153754631691436e-7
322.37488781490305 	 -8.554076913597339e-7
329.9093687770939 	 -7.98258936719819e-7
337.61994411113403 	 -7.43982311444077e-7
345.5107294592218 	 -6.918318649483845e-7
353.58593665351793 	 -6.413262115798852e-7
361.84987596427464 	 -5.926500589485265e-7
370.30695840051413 	 -5.460138591854408e-7
378.9616980644716 	 -4.973086467837404e-7
387.81871456107234 	 -4.5526322871249666e-7
396.8827354637162 	 -4.1590844206626824e-7
406.158598837698 	 -3.8371098406268166e-7
415.6512558225988 	 -3.481341827102538e-7
425.36577327503875 	 -3.1363857302088403e-7
435.30733647318874 	 -2.8148638911665247e-7
445.4812518844989 	 -2.5290204707190326e-7
455.89294999810596 	 -2.256895453083416e-7
466.5479882234473 	 -2.0164608208597963e-7
477.45205385661313 	 -1.7837249763078433e-7
488.6109671160326 	 -1.5710260993792828e-7
500.03068424910947 	 -1.3697642662099686e-7
511.7173007114605 	 -1.1936675155979238e-7
523.6770544204655 	 -1.029394552532904e-7
535.9163290848514 	 -8.908243879642514e-8
548.4416576121021 	 -7.657049584039995e-8
561.2597255954971 	 -6.511728870823241e-8
574.3773748826587 	 -5.6099051226056905e-8
587.8016072274912 	 -4.814970703167063e-8
601.5395880274839 	 -4.158481138077197e-8
615.5986501483508 	 -3.671811122780935e-8
629.9862978380693 	 -3.258712658203695e-8
644.7102107323869 	 -2.9529207043370313e-8
659.778247953954 	 -2.6681646246212486e-8
675.1984523072501 	 -2.517053793109797e-8
690.9790545715645 	 -2.3454290892717053e-8
707.1284778942996 	 -2.225913568811719e-8
723.6553422869657 	 -2.101388495019571e-8
740.5684692262435 	 -1.975984724546695e-8
757.876886362593 	 -1.8537893829523707e-8
775.5898323389001 	 -1.7432718370657433e-8
793.7167617217551 	 -1.616196906705603e-8
812.2673500479711 	 -1.4932138315576086e-8
831.2514989890632 	 -1.3640753859191722e-8
850.6793416364153 	 -1.2231187937272384e-8
870.5612479099865 	 -1.077899349049216e-8
890.9078300934134 	 -9.29227170381459e-9
911.7299484984921 	 -7.838700603071876e-9
933.038717262036 	 -6.417153183229354e-9
954.8455102782293 	 -5.180657532183598e-9
977.1619672696172 	 -3.87748339538321e-9
1000.0 	 -2.8623321317531077e-9
