# This is an integration map on mu of the ξ multipole concerning the PP Doppler.
###############
#    GaPSE    #
############### 
#
# The Cosmology considered had the following paremeters:
# 
# - Matter Power Spectrum input file: "../test/datatest/file_pk.txt"
# - Background data input file: "../test/datatest/WideA_ZA_background.dat"
# - F window function input file: "../test/datatest/F_REFERENCE_pi2.txt"
# - Integrated F window function input file: "../test/datatest/IntegrF_REFERENCE_pi2.txt"
#
# - Basic CosmoParams considered: 
#	 z_min = 0.05 	 z_max = 0.2
#	 θ_max = 1.5707963267948966 [rad] 	 h_0 = 0.7
#	 Ω_b = 0.0489 	 Ω_cdm = 0.25102 	 Ω_M0 = 0.29992
#	 b = 1.0 	 f_evo = 0.0 	 s_b = 0.0
#
# - CosmoParams about the Input Power Spectrum: 
#	 fit_left_min = 1.0e-6 	 fit_right_min = 10.0 	 
#	 fit_left_max = 3.0e-6 	 fit_right_max = 20.0 	 
#
# - CosmoParams about the Input Power Spectrum Tools: 
#	 k_max = 10.0 	 fit_max = 0.5 	 N = 1024 	 
#	 con = true 	 k_min = 1.0e-8 	 fit_min = 0.05 	 
#
# - CosmoParams about the Integrated Window Function F: 
#	 ss_step = 21.768735478453323 	 N = 1000 	 rtol = 0.01 	 
#	 llim = 0.0 	 atol = 0.0 	 rlim = Inf 	 
#	 ss_stop = 0.0 	 trap = true 	 ss_start = 0.0 	 
#
# - Computed quantities: 
# 	 effective redshift z_eff = 0.15045636096023224 
# 	 comoving s_min = 148.1920001465757 Mpc/h_0
# 	 comoving s_max = 571.7022420258767 Mpc/h_0
# 	 comoving s_eff = 435.3747095690664 Mpc/h_0
# 	 Volume of the survey V_survey = 3.845366167995967e8 Mpc^3/h_0^3
# 	 σ_0 = 15.593462966741178
# 	 σ_1 = 15.074895881392285
# 	 σ_2 = 100.85852368830226
# 	 σ_3 = 3735.1226181519773
# 	 (where σ_i = \int_{k_{min}}^{k_{max}}\frac{dq}{2 π^2} q^{2-i} P(q))
# 
# computational time needed (in s) : 1.4494
# kwards passed: 
# 		use_windows = true
# 		L = 0
# 		μ_atol = 0.0
# 		enhancer = 1.0e8
# 		pr = false
# 		N_log = 100
# 		μ_rtol = 0.01
# 
# s [Mpc/h_0] 	 	 xi
1.0 	 3.9889334415805835e-5
1.0233717986325197 	 3.9866785348065335e-5
1.0472898382363585 	 3.9843556712496365e-5
1.071766885445503 	 3.9819631389305984e-5
1.096816005273138 	 3.979498875059365e-5
1.1224505680853065 	 3.9769609829302756e-5
1.1486842567375537 	 3.9743477845641225e-5
1.1755310738783695 	 3.971657268916832e-5
1.2030053494233244 	 3.9688872186862165e-5
1.2311217482038903 	 3.966035826902851e-5
1.2598952777950274 	 3.9631011511303996e-5
1.2893412965257152 	 3.960080895768758e-5
1.3194755216767062 	 3.956972907705068e-5
1.350314037869873 	 3.953775276699017e-5
1.3818733056536323 	 3.950485768951328e-5
1.4141701702890235 	 3.9471019312460514e-5
1.4472218707411348 	 3.943621714899879e-5
1.4810460488806751 	 3.940042964278316e-5
1.5156607589006033 	 3.936363172783194e-5
1.5510844769528402 	 3.932579949222086e-5
1.587336111010209 	 3.9286911772498895e-5
1.6244350109588668 	 3.9246944283328305e-5
1.6624009789266123 	 3.9205870406613926e-5
1.701254279852589 	 3.916366759843506e-5
1.7410156523040161 	 3.912031250818957e-5
1.7817063195457306 	 3.907577831791271e-5
1.823348000868441 	 3.903003920170869e-5
1.8659629231817458 	 3.898307231861222e-5
1.9095738328780973 	 3.893485188897932e-5
1.9542040079740532 	 3.888534975306567e-5
1.9998772705352859 	 3.883454174508454e-5
2.04661799939199 	 3.8782403265289016e-5
2.0944511431514696 	 3.872890631859296e-5
2.143402233514857 	 3.867402366946034e-5
2.193497398905059 	 3.8617731405379776e-5
2.2447633784132237 	 3.856000283218778e-5
2.2972275360711523 	 3.8500808804223744e-5
2.3509178754572866 	 3.84401241674713e-5
2.405863054644066 	 3.837792363307858e-5
2.4620924014946257 	 3.8314178594232515e-5
2.519635929317015 	 3.8248861033139845e-5
2.578524352884274 	 3.818194647027507e-5
2.6387891048289336 	 3.811340783404804e-5
2.7004623524206823 	 3.804321555004354e-5
2.763577014736159 	 3.797134389839369e-5
2.8281667802300325 	 3.7897767359251675e-5
2.894266124716751 	 3.782245713060071e-5
2.961910329772554 	 3.774538472741618e-5
3.0311355015675785 	 3.7666525419513475e-5
3.1019785901380974 	 3.758585198846256e-5
3.1744774091091927 	 3.750333458773244e-5
3.248670655878376 	 3.741894706431934e-5
3.3245979322709407 	 3.7332663678758124e-5
3.4022997656780687 	 3.724445538794943e-5
3.4818176306889654 	 3.7154293170253906e-5
3.563193971228585 	 3.7062151823648256e-5
3.646472223212748 	 3.696800373462019e-5
3.731696837732753 	 3.687181850678929e-5
3.8189133047818533 	 3.677356914441145e-5
3.908168177536266 	 3.667322928227478e-5
3.9995090972036653 	 3.657076920016079e-5
4.09298481845244 	 3.646615884746558e-5
4.188645235435271 	 3.6359372095805186e-5
4.286541408420927 	 3.62503804850734e-5
4.386725591048498 	 3.6139152656300965e-5
4.489251258218605 	 3.602566047827874e-5
4.594173134636477 	 3.590987672277229e-5
4.701547224022132 	 3.5791770916618706e-5
4.811430839003259 	 3.567131214297302e-5
4.923882631706739 	 3.554847364450879e-5
5.0389626250651505 	 3.542322672708698e-5
5.156732244854966 	 3.529554002444988e-5
5.277254352483538 	 3.516538550187081e-5
5.400593278542371 	 3.5032736745271025e-5
5.526814857144603 	 3.4897564634443e-5
5.655986461065006 	 3.4759839926527354e-5
5.788177037701276 	 3.461953829286116e-5
5.923457145875805 	 3.4476634341886236e-5
6.061898993497573 	 3.433110074531293e-5
6.203576476104273 	 3.41829141364952e-5
6.348565216305219 	 3.4032053903120386e-5
6.496942604146123 	 3.387849771261916e-5
6.648787838417265 	 3.3722223829232025e-5
6.804181968927099 	 3.3563216383598116e-5
6.963207939763885 	 3.340145952235659e-5
7.125950633568409 	 3.323693624952251e-5
7.292496916841446 	 3.306963400256739e-5
7.462935686310136 	 3.289954385638711e-5
7.637357916378021 	 3.272665570524284e-5
7.815856707684089 	 3.255096012347879e-5
7.99852733679671 	 3.2372453700407634e-5
8.185467307069027 	 3.219113314018306e-5
8.37677640068292 	 3.2006993692139726e-5
8.572556731909325 	 3.182003432019114e-5
8.77291280161336 	 3.1630257192896395e-5
8.977951553033323 	 3.1437662590815044e-5
9.187782428863335 	 3.1242250413938625e-5
9.402517429670132 	 3.1044025625523794e-5
9.62227117367514 	 3.084299265512623e-5
9.847160957933774 	 3.063915372693343e-5
10.077306820944612 	 3.0432513961972627e-5
10.312831606721847 	 3.0223081690486558e-5
10.553861030365235 	 3.001086354893711e-5
10.800523745162529 	 2.9795866134239968e-5
11.052951411260215 	 2.957810203962929e-5
11.311278765939214 	 2.935758490296516e-5
11.57564369553304 	 2.913432790663494e-5
11.846187309026837 	 2.890834889683963e-5
12.123054013376523 	 2.8679671271755498e-5
12.406391590588319 	 2.844831895218877e-5
12.696351276599735 	 2.8214317551663202e-5
12.993087842004158 	 2.7977700011676015e-5
13.29675967466212 	 2.7738501375853426e-5
13.607528864243331 	 2.749675634220855e-5
13.925561288744627 	 2.7252503278654922e-5
14.251026703029977 	 2.7005784829431695e-5
14.584098829439856 	 2.6756642211040907e-5
14.924955450518299 	 2.6505115788481607e-5
15.27377850390714 	 2.625125070997324e-5
15.630754179458165 	 2.5995092400386202e-5
15.996073018614878 	 2.5736684661932186e-5
16.369930016117028 	 2.5476074427034954e-5
16.752524724082154 	 2.5213313947810475e-5
17.14406135851971 	 2.494845617218537e-5
17.544748908334597 	 2.4681555921195708e-5
17.95480124687831 	 2.441267578445354e-5
18.374437246107266 	 2.414188173044226e-5
18.803880893409158 	 2.3869240106546666e-5
19.2433614111598 	 2.3594820636697497e-5
19.693113379074227 	 2.3318697382258396e-5
20.15337685941733 	 2.304094264089863e-5
20.624397525140918 	 2.2761626966959548e-5
21.106426791015547 	 2.2480824865563628e-5
21.59972194782718 	 2.2198611657420832e-5
22.104546299710215 	 2.19140240304397e-5
22.621169304690252 	 2.162764484704739e-5
23.14986671851161 	 2.134008740358435e-5
23.690920741826332 	 2.105143931894959e-5
24.244620170823282 	 2.0761789344903222e-5
24.81126055137769 	 2.0471231359781845e-5
25.39114433680347 	 2.017985954329089e-5
25.984581049292483 	 1.9887764735185494e-5
26.591887445126936 	 1.9595037697231968e-5
27.213387683753073 	 1.9301772790995066e-5
27.849413500806442 	 1.9008064516264962e-5
28.500304385181067 	 1.8714008856680015e-5
29.16640776023704 	 1.8419708577517307e-5
29.84807916924326 	 1.8125269030075107e-5
30.545682465154318 	 1.7830793231512735e-5
31.259590004822794 	 1.7536382970109038e-5
31.990182847750656 	 1.7242141344667374e-5
32.73785095948577 	 1.6948169344930735e-5
33.50299341977232 	 1.6654567964119688e-5
34.28601863556587 	 1.6361444355789826e-5
35.08734455902713 	 1.606890853109077e-5
35.90739891061055 	 1.577706791139573e-5
36.7466194073669 	 1.5486027499328546e-5
37.605453996581716 	 1.5195892759222567e-5
38.48436109487431 	 1.490676724667316e-5
39.38380983288489 	 1.4618754898423685e-5
40.30428030568053 	 1.4331964700442707e-5
41.24626382901352 	 1.4046505900274852e-5
42.210263201569006 	 1.3762482145951671e-5
43.196792973341736 	 1.3479993709119296e-5
44.20637972028532 	 1.3199621178413966e-5
45.23956232538053 	 1.2921221375346452e-5
46.29689226627266 	 1.2644647342127518e-5
47.37893390963144 	 1.2370000293780954e-5
48.48626481239081 	 1.2097377868994354e-5
49.61947603002903 	 1.1826874599435206e-5
50.77917243205401 	 1.1558586566894064e-5
51.965973024861974 	 1.1292612120384616e-5
53.180511282142 	 1.1029043664329153e-5
54.42343548300266 	 1.0767967898034448e-5
55.69540905800133 	 1.0509473974290945e-5
56.99711094326075 	 1.025365250181253e-5
58.329235942862034 	 1.000058799157527e-5
59.69249509970734 	 9.750359656924392e-6
61.08761607505036 	 9.50304925942853e-6
62.51534353689712 	 9.258737747645623e-6
63.97643955748427 	 9.017499732068401e-6
65.47168402004736 	 8.779402478113507e-6
67.00187503509586 	 8.544477389013138e-6
68.56782936641741 	 8.312831239384775e-6
70.1703828670383 	 8.084530503039109e-6
71.81039092537353 	 7.859644039767958e-6
73.48872892180388 	 7.638241433192654e-6
75.2062926959241 	 7.420387402974924e-6
76.96399902471158 	 7.206147560759116e-6
78.7627861118706 	 6.995590651403766e-6
80.60361408861345 	 6.788779603980391e-6
82.48746552614585 	 6.585771956115855e-6
84.41534596012986 	 6.386618489563677e-6
86.38828442740449 	 6.191343073322118e-6
88.40733401525063 	 5.999343596284374e-6
90.47357242349298 	 5.810812862457858e-6
92.58810253973955 	 5.625850262017209e-6
94.75205302806543 	 5.4441189498846075e-6
96.9665789314552 	 5.265160962910804e-6
99.2328622883255 	 5.088468451982456e-6
101.5521127634568 	 4.913588617072002e-6
103.9255682936713 	 4.7402311007541775e-6
106.35449574860112 	 4.5683419674411104e-6
108.84019160690066 	 4.3981021207297735e-6
111.38398264826195 	 4.23037823027389e-6
113.98722666160525 	 4.065086374636632e-6
116.65131316981962 	 3.902713140556502e-6
119.3776641714437 	 3.743711382004716e-6
122.16773489967919 	 3.588468237684591e-6
125.0230145991456 	 3.4372901947994614e-6
127.94502732078735 	 3.2904059315337475e-6
130.93533273536107 	 3.147982979718115e-6
133.99552696593383 	 3.0101936726561337e-6
137.1272434398401 	 2.8769634519663975e-6
140.33215376054847 	 2.7482957704697184e-6
143.61196859990787 	 2.6241614371397003e-6
146.9684386112446 	 2.504507066687904e-6
150.40335536380252 	 2.3892619818314803e-6
153.91855229902055 	 2.2785924439379644e-6
157.5159057091623 	 2.172445172967839e-6
161.1973357388157 	 2.0703791705795376e-6
164.96480740980206 	 1.9722893598844017e-6
168.82033167003627 	 1.8780665842987576e-6
172.76596646690365 	 1.7875996971411207e-6
176.8038178457207 	 1.7002130992386395e-6
180.93604107387165 	 1.616079832301006e-6
185.1648417912154 	 1.535388194352464e-6
189.49247718738218 	 1.4580252934304124e-6
193.9212572065829 	 1.3838775723980637e-6
198.45354578058033 	 1.3127902132675e-6
203.09176209047348 	 1.245064061949672e-6
207.83838185797572 	 1.1802086302167766e-6
212.69593866686898 	 1.1181320382089299e-6
217.6670253153459 	 1.0587443978961282e-6
222.75429519995586 	 1.001534623579947e-6
227.960463731898 	 9.46840323679579e-7
233.28830978641582 	 8.945716048076212e-7
238.7406771860647 	 8.446364061904744e-7
244.32047621864893 	 7.971509846416425e-7
250.0306851906324 	 7.518340943261004e-7
255.87435201685892 	 7.085691318278636e-7
261.8545958474233 	 6.67213546219683e-7
267.9746087325692 	 6.272353437670211e-7
274.23765732649497 	 5.890979018364329e-7
280.6470846309839 	 5.527280208685587e-7
287.2063117797828 	 5.182311945263118e-7
293.9188398646887 	 4.854420576628013e-7
300.7882518043099 	 4.541936319576629e-7
307.81821425650804 	 4.244613485728298e-7
315.0124795755328 	 3.9494711772869815e-7
322.37488781490305 	 3.6763195427299905e-7
329.9093687770939 	 3.419084854080996e-7
337.61994411113403 	 3.1775984065079856e-7
345.5107294592218 	 2.947968908565599e-7
353.58593665351793 	 2.7288833915780966e-7
361.84987596427464 	 2.5202788064286275e-7
370.30695840051413 	 2.3222464789494004e-7
378.9616980644716 	 2.1486822471525265e-7
387.81871456107234 	 1.9688962350156912e-7
396.8827354637162 	 1.7974647272291236e-7
406.158598837698 	 1.634145470226732e-7
415.6512558225988 	 1.4814852756348577e-7
425.36577327503875 	 1.344830765692909e-7
435.30733647318874 	 1.2153883703772728e-7
445.4812518844989 	 1.0887287696772315e-7
455.89294999810596 	 9.688239615692281e-8
466.5479882234473 	 8.556124539227191e-8
477.45205385661313 	 7.478953123510603e-8
488.6109671160326 	 6.521316256964884e-8
500.03068424910947 	 5.6082979755494285e-8
511.7173007114605 	 4.7949403406850353e-8
523.6770544204655 	 4.0331596941795735e-8
535.9163290848514 	 3.3411323417630946e-8
548.4416576121021 	 2.7099737662705373e-8
561.2597255954971 	 2.174736491326037e-8
574.3773748826587 	 1.662802423959565e-8
587.8016072274912 	 1.1071898591855602e-8
601.5395880274839 	 8.661289667141994e-9
615.5986501483508 	 5.4380972462197375e-9
629.9862978380693 	 2.5715966131173584e-9
644.7102107323869 	 6.642079138409152e-10
659.778247953954 	 -1.0624221657948074e-9
675.1984523072501 	 -2.6466848353411677e-9
690.9790545715645 	 -3.6450011949148696e-9
707.1284778942996 	 -4.3224513093296466e-9
723.6553422869657 	 -4.6742973592904136e-9
740.5684692262435 	 -4.682815665194026e-9
757.876886362593 	 -4.769543428056403e-9
775.5898323389001 	 -4.706352687664493e-9
793.7167617217551 	 -4.466758861089742e-9
812.2673500479711 	 -4.1186275255021155e-9
831.2514989890632 	 -3.747748224626669e-9
850.6793416364153 	 -3.3790127632274426e-9
870.5612479099865 	 -2.892471430887875e-9
890.9078300934134 	 -2.4567374527478013e-9
911.7299484984921 	 -2.026533365306737e-9
933.038717262036 	 -1.6191954316046225e-9
954.8455102782293 	 -1.277717690440148e-9
977.1619672696172 	 -9.297316097045126e-10
1000.0 	 -6.622709838054469e-10
