###############
#    GaPSE    #
############### 
#
# Power Spectrum Multipole computation from two input vectors.
#
# For this PS_multipole computation we set: 
# 	 multipole degree in consideration L = 0
# 	 algorithm chosen for the computation: :fftlog
# 	 #points used in Fourier transform N = 500
# computational time needed (in s) : 0.0006
# kwards passed to "print_PS_multipole": 
# 		ν = 1.5
# 		cut_first_n = 0
# 		cut_last_n = 0
# 		n_extrap_high = 0
# 		n_pad = 500
# 		n_extrap_low = 0
# 
# k [h_0/Mpc] 	 	  P [(Mpc/h_0)^3]
0.00016369382206909115 	 993.4316469992207
0.00016657867325727587 	 998.1589008056105
0.00016951436549903702 	 1002.9594843563999
0.00017250179478954422 	 1008.0393273305223
0.0001755418729144996 	 1013.2116748607593
0.00017863552772842304 	 1018.5685339642563
0.00018178370343783885 	 1024.167632479945
0.00018498736088945543 	 1029.8718798280677
0.0001882474778634232 	 1035.8251423910351
0.00019156504937175922 	 1041.9892856433225
0.00019494108796203375 	 1048.2914867290538
0.000198376624026406 	 1054.8996157191204
0.00020187270611610804 	 1061.663664226896
0.00020543040126147103 	 1068.6633364509617
0.00020905079529758957 	 1075.9453665867113
0.00021273499319572815 	 1083.4021590930956
0.00021648411940056498 	 1091.1542013645537
0.00022029931817338274 	 1099.1705910402466
0.00022418175394130397 	 1107.3976688055275
0.00022813261165268356 	 1115.9731733643598
0.00023215309713876472 	 1124.7775385584969
0.0002362444374817058 	 1133.8804550726322
0.00024040788138909695 	 1143.3206454050342
0.00024464469957507335 	 1153.0147420325109
0.0002489561851481472 	 1163.0644276025498
0.00025334365400587496 	 1173.445639600586
0.0002578084452364774 	 1184.1201608621773
0.00026235192152754104 	 1195.201928450602
0.0002669754695819192 	 1206.5966102634377
0.0002716805005409646 	 1218.365761223248
0.0002764684504152208 	 1230.542346568047
0.0002813407805227019 	 1243.0628718903743
0.0002862989779348997 	 1256.0138772425855
0.00029134455593064697 	 1269.3775800154403
0.0002964790544579822 	 1283.1281429005285
0.00030170404060415456 	 1297.3606272822674
0.0003070211090739079 	 1312.001497685848
0.00031243188267619944 	 1327.1055651782588
0.00031793801281949067 	 1342.701573333372
0.00032354118001577176 	 1358.742134860343
0.0003292430943934643 	 1375.3013938871857
0.0003350454962193661 	 1392.3670051911984
0.0003409501564297949 	 1409.922787129959
0.00034695887717108877 	 1428.0485319008123
0.0003530734923496371 	 1446.6874975755352
0.0003592958681916006 	 1465.8885309557686
0.0003656279038124981 	 1485.6769023141128
0.000372071531796832 	 1506.017818183239
0.00037862871878792506 	 1526.9747871985319
0.00038530146608815717 	 1548.5396089752583
0.00039209181026977566 	 1570.703040469922
0.00039900182379647294 	 1593.531893973101
0.0004060336156559195 	 1616.982313216139
0.0004131893320034396 	 1641.0971831554468
0.0004204711568170375 	 1665.898150532564
0.0004278813125639603 	 1691.3594304033054
0.0004354220608790135 	 1717.5345718893143
0.0004430957032548295 	 1744.4176000830942
0.00045090458174429777 	 1772.003212667092
0.00045885107967538 	 1800.346199356993
0.0004669376223785162 	 1829.4114999047642
0.0004751666779268573 	 1859.2351491705308
0.00048354075788953615 	 1889.834059376965
0.0004920624180982184 	 1921.1875878267015
0.0005007342594271633 	 1953.3389120975496
0.0005095589285870261 	 1986.2816905220677
0.0005185391189326578 	 2020.0111795117707
0.0005276775712851343 	 2054.569916165224
0.0005369770747682758 	 2089.927332638722
0.0005464404676599109 	 2126.1109723828245
0.0005560706382581359 	 2163.1311604314647
0.000565870525762849 	 2200.9683918655664
0.0005758431211728129 	 2239.654332354554
0.0005859914681985311 	 2279.179380697923
0.0005963186641912126 	 2319.53596976856
0.0006068278610881032 	 2360.7536077510526
0.0006175222663744842 	 2402.802259518121
0.0006284051440626175 	 2445.699345445476
0.0006394798156879472 	 2489.4469017594556
0.0006507496613228599 	 2534.023320665303
0.0006622181206083031 	 2579.4480375224925
0.0006738886938035944 	 2625.706226941043
0.0006857649428547217 	 2672.785431373736
0.0006978504924814808 	 2720.7024010983523
0.0007101490312837625 	 2769.4256139340505
0.0007226643128673422 	 2818.9625760978593
0.0007354001569895114 	 2869.3074805671017
0.0007483604507248906 	 2920.4362004504314
0.000761549149651799 	 2972.357952986626
0.000774970279059522 	 3025.05405776395
0.0007886279351768615 	 3078.508915146548
0.000802526286422337 	 3132.7305631752592
0.0008166695746764145 	 3187.6886282597206
0.0008310621165761644 	 3243.385619001884
0.0008457083048327263 	 3299.8134107465985
0.0008606126095720004 	 3356.9506526174773
0.0008757795796989649 	 3414.804041883072
0.00089121384428603 	 3473.358604076386
0.0009069201139858729 	 3532.603878009953
0.0009229031824691568 	 3592.5496425250667
0.0009391679278875985 	 3653.176262972158
0.0009557193143628191 	 3714.4929193587427
0.0009725623935014248 	 3776.5014301193337
0.0009897023059368016 	 3839.1953400420725
0.0010071442828980682 	 3902.5928065592866
0.001024893647806694 	 3966.6961878443735
0.001042955817901239 	 4031.514028243523
0.0010613363058907398 	 4097.072917381589
0.0010800407216372313 	 4163.37760996859
0.0010990747738679123 	 4230.458387448058
0.0011184442719174993 	 4298.340763810269
0.0011381551275012718 	 4367.045474393713
0.0011582133565193745 	 4436.61434809237
0.001178625080892919 	 4507.077155600727
0.0011993965304324318 	 4578.46967910855
0.0012205340447392467 	 4650.84221727321
0.0012420440751403927 	 4724.227156530024
0.0012639331866575885 	 4798.677070791898
0.0012862080600109412 	 4874.238939157743
0.0013088754936579424 	 4950.954322432412
0.0013319424058684183 	 5028.879264774052
0.0013554158368360289 	 5108.05673989691
0.0013793029508269905 	 5188.531157623822
0.0014036110383666687 	 5270.354086135408
0.0014283475184646893 	 5353.557698592213
0.0014535199408792897 	 5438.185331245669
0.0014791359884215466 	 5524.2696144328
0.001505203479300241 	 5611.832957951429
0.001531730369508024 	 5700.903127574763
0.0015587247552496467 	 5791.490881194047
0.0015861948754129901 	 5883.602302155514
0.0016141491140836226 	 5977.243373756402
0.0016425960031036984 	 6072.399327989914
0.0016715442246759279 	 6169.060422822879
0.0017010026140134565 	 6267.204864009122
0.0017309801620364411 	 6366.801078627597
0.0017614860181161352 	 6467.821564777365
0.0017925294928673584 	 6570.226497731784
0.0018241200609901552 	 6673.975919974448
0.0018562673641615457 	 6779.035036539208
0.0018889812139782467 	 6885.359649786453
0.001922271594951228 	 6992.91905465577
0.001956148667553077 	 7101.683516995491
0.0019906227713190373 	 7211.627970667458
0.0020257044280027154 	 7322.743949635624
0.002061404344787407 	 7435.026771201758
0.0020977334175539945 	 7548.485503397615
0.002134702734206465 	 7663.146074320673
0.0021723235780560096 	 7779.037987593723
0.0022106074312647855 	 7896.210528244064
0.002249565978350347 	 8014.719082257163
0.002289211109751851 	 8134.6245989929
0.0023295549254591166 	 8255.998551647934
0.002370609738705614 	 8378.907745994966
0.002412388079726576 	 8503.417699119951
0.002454902699583302 	 8629.590250130894
0.002498166574054882 	 8757.468880885272
0.0025421929075985132 	 8887.08886105705
0.002586995137379577 	 9018.464197719577
0.0026325869373727837 	 9151.587510313642
0.0026789822225355554 	 9286.435780864405
0.0027261951530549795 	 9422.962073712633
0.0027742401386696147 	 9561.104484416319
0.002823131843067429 	 9700.791858009441
0.0028728851883612887 	 9841.941236695366
0.002923515359643283 	 9984.476077782218
0.00297503780961933 	 10128.325253089917
0.003027468263325472 	 10273.431877440347
0.003080822722927247 	 10419.764275825557
0.0031351174726037003 	 10567.312613287224
0.00319036908351741 	 10716.095611468565
0.0032465944188721425 	 10866.159877866794
0.003303810639059634 	 11017.568289130355
0.003362035206897052 	 11170.401161294383
0.003421285892956799 	 11324.738735136743
0.003481580780990201 	 11480.650849511325
0.003542938273446828 	 11638.188935914903
0.0036053770970910356 	 11797.36993556773
0.0036689163087175224 	 11958.174148213093
0.0037335753009676196 	 12120.544401022848
0.00379937380824804 	 12284.385141991654
0.0038663319127540006 	 12449.580259461263
0.003934470050598428 	 12616.002399235751
0.004003809018049226 	 12783.53228896495
0.004074369977876463 	 12952.079296371323
0.00414617446581138 	 13121.590496552986
0.004219244397119287 	 13292.061365835334
0.004293602073288237 	 13463.534135628257
0.004369270188835623 	 13636.081627395122
0.004446271838234722 	 13809.79291928583
0.00452463052296327 	 13984.743006176164
0.004604370158676328 	 14160.968879857583
0.004685515082505484 	 14338.452820347244
0.004768090060486738 	 14517.111244327523
0.004852120295119302 	 14696.805547333062
0.004937631433057552 	 14877.365071103874
0.0050246495729386175 	 15058.616936611075
0.005113201273347841 	 15240.426582319213
0.005203313560924701 	 15422.721442582859
0.0052950139386115005 	 15605.502659921236
0.00538833039404749 	 15788.834606525694
0.005483291408110921 	 15972.80794136379
0.005579925963611583 	 16157.495381200853
0.005678263554136614 	 16342.906770282165
0.005778334193052133 	 16528.95933850779
0.005880168422663547 	 16715.484899653817
0.005983797323537324 	 16902.262260707386
0.0060892525239869535 	 17089.07657273507
0.006196566209726213 	 17275.780192272206
0.006305771133692427 	 17462.325956053828
0.006416900626042935 	 17648.76274550129
0.006529988604327723 	 17835.18451582303
0.006645069583841265 	 18021.651097031485
0.006762178688156903 	 18208.122421416832
0.006881351659846776 	 18394.429995712377
0.007002624871390739 	 18580.314038700017
0.007126035336277538 	 18765.510489046355
0.007251620720301552 	 18949.843439878325
0.007379419353058732 	 19133.276937070947
0.0075094702396450224 	 19315.88590426891
0.007641813072561061 	 19497.75458197704
0.007776488243826588 	 19678.862881374946
0.007913536857308395 	 19859.024674110336
0.008053000741265567 	 20037.932806105364
0.008194922461115724 	 20215.28873996561
0.008339345332426366 	 20390.932313400175
0.008486313434135048 	 20564.880223328466
0.008635871622002626 	 20737.229581945638
0.0087880655423036 	 20907.987511435007
0.00894294164575763 	 21076.96083057737
0.009100547201706721 	 21243.798887170407
0.009260930312542107 	 21408.175464419015
0.009424139928385492 	 21569.95962474535
0.009590225862029015 	 21729.215559356504
0.009759238804138433 	 21886.015990391796
0.009931230338724352 	 22040.229352282033
0.010106252958885984 	 22191.494414797853
0.01028436008283249 	 22339.431935856268
0.010465606070186586 	 22483.885225622253
0.010650046238575517 	 22624.92932228181
0.010837736880514395 	 22762.611440249606
0.011028735280587112 	 22896.702070880197
0.011223099732930016 	 23026.76441795918
0.011420889559023713 	 23152.48515666839
0.011622165125798424 	 23273.86421599258
0.011826987864058438 	 23390.997500684993
0.012035420287231216 	 23503.70827501851
0.012247526010447003 	 23611.540025334405
0.012463369769954599 	 23714.15414857373
0.012683017442879375 	 23811.572422019948
0.012906536067329447 	 23903.875238820554
0.013133993862856196 	 23990.785440746386
0.013365460251275413 	 24071.812645499693
0.013601005877855336 	 24146.766114222257
0.013840702632878116 	 24215.774200283577
0.014084623673581272 	 24278.73656105542
0.014332843446485805 	 24335.166585481635
0.01458543771011786 	 24384.75648254516
0.014842483558130786 	 24427.62750328034
0.015104059442834683 	 24463.739181848436
0.015370245199140637 	 24492.60619451036
0.015641122068926937 	 24513.943763442225
0.015916772725834687 	 24527.914396682856
0.016197281300500434 	 24534.40508345369
0.016482733406233463 	 24532.908841875458
0.016773216165145606 	 24523.332020174003
0.01706881823474159 	 24505.85844805165
0.017369629834977904 	 24480.14378078424
0.017675742775798687 	 24445.828312485544
0.017987250485156748 	 24403.122739716506
0.018304248037528503 	 24351.934071701908
0.018626832182931395 	 24291.816417122365
0.01895510137645274 	 24222.911872011613
0.019289155808298923 	 24145.297216092604
0.019629097434374236 	 24058.539975686665
0.019975030007398562 	 23962.774455003477
0.020327059108573468 	 23858.14693625701
0.02068529217980641 	 23744.256849795576
0.02104983855650274 	 23621.353920378602
0.021420809500935768 	 23489.52434093888
0.021798318236204768 	 23348.466435927756
0.022182479980791564 	 23198.614050553642
0.022573411983726033 	 23039.836529819764
0.022971233560371423 	 22872.179400157962
0.023376066128840217 	 22696.017547532254
0.023788033247051952 	 22511.166772979937
0.02420726065044393 	 22318.074817262932
0.02463387629034666 	 22116.78056709318
0.02506801037303554 	 21907.512985285826
0.025509795399470767 	 21690.62613110868
0.02595936620573766 	 21466.207817980892
0.02641686000419961 	 21234.76356701158
0.026882416425376313 	 20996.43793674295
0.027356177560560076 	 20751.68951675155
0.027838288005183117 	 20500.87979537641
0.028328894902949125 	 20244.345529296985
0.028828147990742733 	 19982.629219448467
0.029336199644330218 	 19716.074583659592
0.029853204924865775 	 19445.211266250437
0.030379321626217346 	 19170.55840523662
0.03091471032312642 	 18892.564048030406
0.031459534420216734 	 18611.841435102386
0.032013960201866525 	 18328.914472617176
0.03257815688295978 	 18044.310454636383
0.03315229666053186 	 17758.715054327684
0.03373655476632538 	 17472.61158670699
0.03433110952027212 	 17186.657333939085
0.034936142384917754 	 16901.475578841026
0.03555183802080546 	 16617.578205921513
0.03617838434283574 	 16335.684750491808
0.03681597257761947 	 16056.304914453493
0.03746479732184159 	 15780.028899038554
0.038125056601653586 	 15507.492145068503
0.03879695193311249 	 15239.141563986264
0.039480688383685084 	 14975.589666038588
0.04017647463483602 	 14717.304862566833
0.040884523045719004 	 14464.720622608731
0.041605049717990256 	 14218.356034586734
0.04233827456176454 	 13978.50638486404
0.04308442136273326 	 13745.5668374767
0.04384371785046551 	 13519.84270325257
0.04461639576791292 	 13301.525434654672
0.04540269094213918 	 13090.87337135386
0.04620284335629643 	 12887.941622699806
0.04701709722286974 	 12692.802063533269
0.047845701058212654 	 12505.471261210829
0.04868890775839621 	 12325.807624092107
0.04954697467639474 	 12153.68712846307
0.05042016370063185 	 11988.839135339807
0.0513087413349108 	 11830.938327337784
0.05221297877975341 	 11679.590669809999
0.053133152015172484 	 11534.263806406752
0.05406954188490303 	 11394.418414144979
0.05502243418211768 	 11259.361193913437
0.05599211973665313 	 11128.366340615868
0.05697889450377343 	 11000.61092164995
0.057983059654497814 	 10875.212750595825
0.05900492166752025 	 10751.236411272877
0.06004479242274916 	 10627.664662641158
0.061102989296495304 	 10503.512745131811
0.062179835258337576 	 10377.672065971723
0.06327565896969566 	 10249.132916357199
0.06439079488413992 	 10116.849707834845
0.06552558334946922 	 9979.820030515837
0.06668037071158739 	 9837.135556928362
0.06785550942021089 	 9687.936237671502
0.06905135813643884 	 9531.518675856403
0.0702682818422192 	 9367.296911001991
0.07150665195174392 	 9194.861940845523
0.07276684642480737 	 9014.003883137453
0.07404924988216235 	 8824.710013140939
0.07535425372290946 	 8627.203260365653
0.07668225624395482 	 8421.950633747589
0.07803366276157331 	 8209.627788758959
0.07940888573511422 	 7991.199297532307
0.08080834489288667 	 7767.781881747399
0.08223246736026411 	 7540.768365282484
0.08368168779004603 	 7311.664443167647
0.08515644849511722 	 7082.143587225768
0.086657199583445 	 6853.983487788893
0.08818439909545558 	 6628.954850549241
0.08973851314383122 	 6408.914403984823
0.0913200160557715 	 6195.549689524084
0.09292939051776153 	 5990.548197533525
0.09456712772289128 	 5795.351688085483
0.09623372752077157 	 5611.2330329537435
0.09792969857009166 	 5439.232615890776
0.09965555849386602 	 5280.029831238717
0.10141183403741642 	 5134.105876052987
0.1031990612291387 	 5001.466991998287
0.10501778554410254 	 4881.889446368609
0.10686856207053463 	 4774.7114781825685
0.10875195567923565 	 4678.920837389361
0.11066854119598307 	 4593.241876155261
0.11261890357697225 	 4515.921540868723
0.11460363808734955 	 4445.134144000828
0.11662335048289144 	 4378.64649032439
0.11867865719488602 	 4314.200278005383
0.12077018551827211 	 4249.487303776876
0.12289857380309457 	 4182.147512542653
0.1250644716493335 	 4110.209082727595
0.12726854010516675 	 4031.787331701944
0.12951145186872706 	 3945.6146367141414
0.13179389149341447 	 3850.8918555926325
0.13411655559682686 	 3747.383890362893
0.13648015307337324 	 3635.6733595238093
0.13888540531063343 	 3516.787371848907
0.1413330464095307 	 3392.491570107941
0.14382382340838534 	 3264.984439666937
0.14635849651091584 	 3136.694787036632
0.14893783931825907 	 3010.3641510499947
0.15156263906507902 	 2888.5017443075635
0.15423369685983654 	 2773.4633681836754
0.15695182792929382 	 2667.2402082417575
0.15971786186732767 	 2571.1182748018023
0.16253264288812758 	 2485.9502797812097
0.1653970300838563 	 2411.740788966259
0.1683118976868514 	 2347.8118828163565
0.1712781353364469 	 2292.9810527694062
0.17429664835049855 	 2245.192075537048
0.177368358001693 	 2202.279214379788
0.18049420179872755 	 2161.6013551875735
0.18367513377244452 	 2120.4937544697677
0.1869121247670085 	 2076.7721821694927
0.19020616273621563 	 2028.348316035589
0.19355825304502414 	 1974.2284159839214
0.19696941877639912 	 1914.070516460092
0.20044070104356557 	 1848.377354014306
0.20397315930776347 	 1778.7509891882028
0.20756787170160332 	 1707.0463431162789
0.2112259353581205 	 1635.713165741324
0.21494846674562818 	 1567.2022527168226
0.21873660200847195 	 1503.3596769958444
0.22259149731378944 	 1445.928390144936
0.22651432920438125 	 1395.4687798371879
0.23050629495780045 	 1351.8510004922446
0.2345686129517708 	 1314.3216057116133
0.23870252303604467 	 1281.1142604515223
0.2429092869108142 	 1250.4176086544937
0.24719018851179209 	 1220.1308060352383
0.2515465344020777 	 1188.3808414595587
0.25597965417093055 	 1154.0075150010973
0.2604909008395704 	 1116.500846656985
0.26508165127412947 	 1076.13319212329
0.2697533066058827 	 1034.1824056465844
0.2745072926588827 	 991.9924611778742
0.27934506038513246 	 951.31234106034
0.28426808630742684 	 913.6414164285065
0.2892778729699975 	 879.5882556489939
0.2943759493971017 	 849.5643707268289
0.2995638715596913 	 822.8777809200276
0.30484322285030635 	 798.4814371735486
0.3102156145663393 	 775.1441495979742
0.315682686401814 	 751.5924315861499
0.32124610694783323 	 727.0008909495136
0.32690757420184474 	 701.209622107216
0.33266881608588306 	 674.5227507246337
0.33853159097394375 	 647.7193095710156
0.34449768822865273 	 621.8905162356954
0.3505689287473928 	 597.612133306623
0.3567471655180553 	 575.4759368691891
0.3630342841845856 	 555.2830782097084
0.36943220362249585 	 536.5072226099749
0.3759428765245203 	 518.5493326384498
0.38256828999659115 	 500.6249317136653
0.3893104661643186 	 482.4986360139828
0.39617146279015836 	 464.0927288025612
0.4031533739014565 	 445.83025846298955
0.4102583304295616 	 428.12165512216984
0.4174885008602016 	 411.36754305374063
0.424846091895321 	 395.76880118712575
0.43233334912658367 	 381.07415256185107
0.4399525577207435 	 367.10261741147195
0.44770604311709433 	 353.4312622175336
0.4555961717372122 	 339.86988413994385
0.4636253517072036 	 326.496900822257
0.4717960335926845 	 313.3752184020131
0.4801107111467109 	 300.78057126204067
0.4885719220708909 	 288.82765690061603
0.4971822487899101 	 277.43689533989715
0.5059443192397071 	 266.5549031806427
0.5148608076695385 	 255.9899087552251
0.5239344354581809 	 245.63864107563552
0.5331679719445147 	 235.5787870476432
0.5425642352727479 	 225.82457846071927
0.5521260932525344 	 216.45168178105914
0.5618564642342508 	 207.5107387150668
0.5717583179996988 	 198.90218695545315
0.581834676668505 	 190.5789852597901
0.5920886156204938 	 182.5256314063723
0.6025232644343167 	 174.71378094321418
0.6131418078426232 	 167.17588815219287
0.6239474867040643 	 159.94129030152334
0.6349435989924274 	 152.9823035928452
0.6461335008032022 	 146.26808598548706
0.6575206073778856 	 139.79196412247765
0.6691083941463404 	 133.54180278264215
0.6809003977875204 	 127.51233934628758
0.6929002173088927 	 121.7087464667715
0.7051115151448814 	 116.12595114942533
0.7175380182746685 	 110.74907728047404
0.7301835193596982 	 105.5638718006823
0.7430518779012232 	 100.56867488428722
0.7561470214182548 	 95.76066880742951
0.7694729466462702 	 91.13420644593401
0.7830337207570459 	 86.68004423656713
0.7968334825999892 	 82.39066729700967
0.8108764439653464 	 78.26385488996938
0.8251668908696714 	 74.29269035432122
0.8397091848639511 	 70.47371682313715
0.8545077643647822 	 66.80000292032759
0.86956714600901 	 63.265885323368494
0.8848919260322392 	 59.86890830903884
0.9004867816716393 	 56.60280290735603
0.9163564725934723 	 53.46427017296598
0.9325058423457786 	 50.448488708827576
0.9489398198366633 	 47.549969009388704
0.965663420838637 	 44.76703150683046
0.9826817495194652 	 42.09310712142967
1.0 	 39.52639990129054
