###############
#    GaPSE    #
############### 
#
# Power Spectrum Multipole computation from two input vectors.
#
# For this PS_multipole computation we set: 
# 	 multipole degree in consideration L = 2
# 	 algorithm chosen for the computation: :fftlog
# 	 #points used in Fourier transform N = 500
# computational time needed (in s) : 0.0004
# kwards passed to "print_PS_multipole": 
# 		ν = 1.5
# 		cut_first_n = 0
# 		cut_last_n = 0
# 		n_extrap_high = 0
# 		n_pad = 500
# 		n_extrap_low = 0
# 
# k [h_0/Mpc] 	 	  P [(Mpc/h_0)^3]
0.0004910814662072734 	 106.65135313230944
0.0004997360197718276 	 110.15425020340419
0.0005085430964971111 	 113.76315883208694
0.0005175053843686327 	 117.48510098803447
0.0005266256187434989 	 121.31536202135518
0.0005359065831852691 	 125.26368836672445
0.0005453511103135166 	 129.3306067453767
0.0005549620826683663 	 133.51644074008564
0.0005647424335902696 	 137.8302064500898
0.0005746951481152776 	 142.26988086511727
0.0005848232638861013 	 146.84014847202724
0.000595129872079218 	 151.5476769677449
0.0006056181183483241 	 156.38978905969162
0.0006162912037844131 	 161.37560833312045
0.0006271523858927688 	 166.50664559000606
0.0006382049795871844 	 171.784513716351
0.000649452358201695 	 177.21779462865513
0.0006608979545201482 	 182.8061566916123
0.0006725452618239119 	 188.5549255637415
0.0006843978349580507 	 194.4709190787306
0.0006964592914162942 	 200.55356892677705
0.0007087333124451173 	 206.81199155575092
0.0007212236441672908 	 213.24908019714155
0.00073393409872522 	 219.8680978812945
0.0007468685554444416 	 226.67796421725564
0.0007600309620176249 	 233.68048595268812
0.0007734253357094322 	 240.88232057755948
0.0007870557645826232 	 248.29133653288153
0.0008009264087457577 	 255.90967250280875
0.0008150415016228937 	 263.74752433565425
0.0008294053512456623 	 271.81011889401367
0.0008440223415681057 	 280.1033452509638
0.0008588969338046992 	 288.63781553864334
0.0008740336677919409 	 297.41861329076227
0.0008894371633739467 	 306.45511845269226
0.0009051121218124637 	 315.7578514335642
0.0009210633272217236 	 325.33306282087057
0.0009372956480285984 	 335.19387214765266
0.0009538140384584721 	 345.3496072420361
0.0009706235400473153 	 355.81060843801805
0.0009877292831803929 	 366.5913351286887
0.0010051364886580984 	 377.7021419700445
0.0010228504692893848 	 389.1573414275442
0.0010408766315132662 	 400.9724751941618
0.0010592204770489113 	 413.16009840339115
0.0010778876045748017 	 425.7387671967059
0.0010968837114374943 	 438.72430103781977
0.0011162145953904962 	 452.1338566982294
0.0011358861563637752 	 465.9882701774462
0.0011559043982644714 	 480.3054386199757
0.001176275430809327 	 495.1069019184826
0.0011970054713894187 	 510.415456735232
0.0012181008469677585 	 526.2518367291915
0.001239567996010319 	 542.6419157355217
0.0012614134704511126 	 559.6094941896372
0.0012836439376918808 	 577.1796916957417
0.0013062661826370406 	 595.3806354187618
0.0013292871097644885 	 614.2380704004562
0.0013527137452328934 	 633.7806579527941
0.0013765532390261398 	 654.0378251490991
0.0014008128671355485 	 675.0370770377967
0.0014255000337805718 	 696.8096896514571
0.0014506222736686085 	 719.3846793352456
0.0014761872542946553 	 742.7915538979546
0.00150220277828149 	 767.0614387044674
0.0015286767857610782 	 792.2226295209788
0.0015556173567979736 	 818.3048055393714
0.0015830327138554028 	 845.3370739406755
0.0016109312243048274 	 873.3457756130745
0.0016393214029797327 	 902.3589815638369
0.0016682119147744077 	 932.4014807607517
0.001697611577288547 	 963.4970655633667
0.0017275293635184387 	 995.6693281036023
0.0017579744045955932 	 1028.9381110153029
0.001788955992573638 	 1063.3230064816807
0.0018204835832643096 	 1098.8417871634972
0.0018525667991234527 	 1135.5088412169819
0.0018852154321878523 	 1173.338980853203
0.0019184394470638415 	 1212.3435726611071
0.0019522489839685798 	 1252.5327587690208
0.0019866543618249095 	 1293.9163494260822
0.0020216660814107836 	 1336.5013504617589
0.002057294828564165 	 1380.2952261179162
0.0020935514774444424 	 1425.3049885487583
0.0021304470938512876 	 1471.5364265447463
0.0021679929386020265 	 1518.9976046813586
0.0022062004709685343 	 1567.696102225008
0.0022450813521746717 	 1617.6412533713992
0.002284647448955397 	 1668.8451101105882
0.002324910837178566 	 1721.32069361644
0.002365883805530584 	 1775.0847795633467
0.0024075788592670113 	 1830.1571072275444
0.0024500087240292437 	 1886.559666646581
0.0024931863497284932 	 1944.3192312218132
0.002537124914498179 	 2003.464651660175
0.0025818378287160012 	 2064.028140917842
0.0026273387390968943 	 2126.0452706335745
0.00267364153285809 	 2189.5527382260393
0.002720760341957619 	 2254.589714479633
0.0027687095474074703 	 2321.1961941414825
0.0028175037836627955 	 2389.4115048630815
0.0028671579430884575 	 2459.275457791986
0.0029176871805042743 	 2530.8253716160384
0.002969106917810405 	 2604.096591396926
0.003021432848694205 	 2679.122109027004
0.003074680943420082 	 2755.9307335085546
0.0031288674537037174 	 2834.5484649205537
0.0031840089176722194 	 2914.9977104101636
0.0032401221649116943 	 2997.296996265954
0.0032972243216037368 	 3081.463022581132
0.003355332815752498 	 3167.509539098479
0.0034144653825038157 	 3255.4491836530337
0.0034746400695581238 	 3345.294462004697
0.0035358752426787577 	 3437.0574327841387
0.0035981895912972953 	 3530.751672562801
0.00366160213421774 	 3626.3920385100505
0.003726132225421178 	 3723.9943996879897
0.0037917995599727654 	 3823.576704423486
0.0038586241800328235 	 3925.156969363254
0.003926626480973827 	 4028.753308042347
0.0039958272176052545 	 4134.382929327392
0.004066247510508087 	 4242.060061107786
0.004137908852480971 	 4351.795853447221
0.004210833115100006 	 4463.596822126161
0.004285042555394069 	 4577.46385591647
0.004360559822637869 	 4693.392932376375
0.00443740796526464 	 4811.3740246085645
0.004515610437900723 	 4931.392316732229
0.004595191108524072 	 5053.428965824675
0.00467617426574894 	 5177.461214909492
0.00475858462623897 	 5303.463978520646
0.004842447342250868 	 5431.4098017894885
0.004927788009311095 	 5561.268672205296
0.005014632674027784 	 5693.008430197811
0.005103007842040369 	 5826.592992351713
0.005192940486109323 	 5961.981952139285
0.005284458054348406 	 6099.129551617791
0.0053775884786020755 	 6237.983323824851
0.005472360182970466 	 6378.484432481044
0.0055688020924846374 	 6520.567423314103
0.0056669436419347395 	 6664.160708384536
0.005766814784853684 	 6809.188191379558
0.005868446002659232 	 6955.569488396413
0.005971868313957111 	 7103.221256752468
0.006077113284008147 	 7252.057546188697
0.006184213034362222 	 7401.989226158928
0.006293200252661983 	 7552.924046106546
0.006404108202619396 	 7704.765642048377
0.006516970734168029 	 7857.412961162107
0.006631822293794356 	 8010.760787722376
0.006748697935051041 	 8164.699647825861
0.006867633329255554 	 8319.117275346489
0.00698866477637735 	 8473.899770586475
0.007111829216116842 	 8628.932241304072
0.007237164239179729 	 8784.09977133587
0.007364708098749906 	 8939.287027926544
0.0074944997221646475 	 9094.377636512838
0.00762657872279554 	 9249.253969403437
0.00776098541213873 	 9403.796315693147
0.007897760812118352 	 9557.883656952576
0.008036946667606666 	 9711.394858201938
0.008178585459164939 	 9864.210324034588
0.008322720416008844 	 10016.214641518376
0.008469395529202286 	 10167.298345676836
0.008618655565083866 	 10317.359013579013
0.00877054607892985 	 10466.301358078475
0.008925113428857991 	 10614.034966727735
0.009082404789976416 	 10760.47160799766
0.00924246816878174 	 10905.522018098583
0.0094053524178111 	 11049.09380069948
0.00957110725055223 	 11191.092385231068
0.009739783256616426 	 11331.424212941785
0.009911431917178902 	 11470.00165184151
0.010086105620691156 	 11606.747390632967
0.010263857678870397 	 11741.594998243736
0.010444742342970603 	 11874.485917466307
0.010628814820340483 	 12005.363095828723
0.010816131291273106 	 12134.164258649364
0.011006748926152568 	 12260.818345844646
0.011200725902902858 	 12385.245712441738
0.01139812142474412 	 12507.362013961654
0.011598995738262001 	 12627.08335900667
0.011803410151795285 	 12744.328954267545
0.012011427054147678 	 12859.020150834238
0.012223109933629388 	 12971.075200977994
0.01243852339743414 	 13080.402835995992
0.01265773319135786 	 13186.899471110737
0.012880806219864711 	 13290.451595040176
0.01310781056650687 	 13390.941126796946
0.013338815514704165 	 13488.247327529336
0.01357389156888981 	 13582.241287806924
0.013813110476028984 	 13672.779088095218
0.01405654524751645 	 13759.70314494019
0.014304270181460214 	 13842.855048559608
0.014556360885357908 	 13922.088997286975
0.014812894299172655 	 13997.269141358485
0.015073948718815853 	 14068.250220006996
0.015339603820043525 	 14134.861512693165
0.015609940682774104 	 14196.915367497071
0.0158850418158345 	 14254.237617677569
0.01616499118214247 	 14306.689730475988
0.016449874224332764 	 14354.158709980487
0.01673977789083475 	 14396.525913180934
0.017034790662409843 	 14433.650383644082
0.0173350025791564 	 14465.387354253406
0.01764050526799064 	 14491.620773564453
0.01795139197061197 	 14512.271628032315
0.018267757571960863 	 14527.275335135882
0.018589698629178638 	 14536.561006424077
0.01891731340107728 	 14540.05994648676
0.019250701878128804 	 14537.722054391646
0.019589965812983168 	 14529.506483330015
0.019935208751523794 	 14515.368985270805
0.020286536064470707 	 14495.28291233522
0.020644054979540326 	 14469.25614849528
0.021007874614172216 	 14437.29161460439
0.021378106008832616 	 14399.347509182815
0.021754862160904654 	 14355.381329788624
0.022138258059176196 	 14305.415306081726
0.022528410718935066 	 14249.499806560056
0.022925439217683186 	 14187.624529061803
0.023329464731479763 	 14119.746270207574
0.023740610571925183 	 14045.901132918616
0.024159002223796702 	 13966.18002489693
0.024584767383347174 	 13880.625993023092
0.0250180359972791 	 13789.282063290055
0.025458940302405142 	 13692.251788508154
0.02590761486600788 	 13589.65655040084
0.0263641966269108 	 13481.643886745076
0.026828824937272896 	 13368.393061353963
0.027301641605120164 	 13250.062967826143
0.027782790937626322 	 13126.836939077984
0.028272419785156475 	 12998.993247317412
0.028770677586087045 	 12866.771739626945
0.029277716412415302 	 12730.35074370136
0.029793691016173057 	 12590.041111984887
0.030318758876657952 	 12446.147853252549
0.030853080248497467 	 12298.890061271408
0.03139681821055976 	 12148.589216927932
0.03195013871572655 	 11995.561522487475
0.03251321064154318 	 11840.125503183715
0.033086205841761335 	 11682.614891398029
0.03366929919879005 	 11523.346155527282
0.03426266867707114 	 11362.7400961903
0.03486649537739527 	 11201.12201738303
0.03548096359217531 	 11038.852636322677
0.03610626086169365 	 10876.373708755786
0.036742578031341004 	 10714.004909397645
0.0373901093098638 	 10552.120855526264
0.038049052328638124 	 10391.114451180849
0.038719608201988345 	 10231.289383495165
0.03940198158856859 	 10072.970515837742
0.04009638075382624 	 9916.505105003298
0.04080301763356601 	 9762.143148075309
0.04152210789863435 	 9610.206751665652
0.042253871020743815 	 9460.990684269374
0.042998530339457414 	 9314.735658894804
0.04375631313035358 	 9171.752841038577
0.04452745067439236 	 9032.229645869818
0.04531217832850405 	 8896.375813505938
0.04611073559742191 	 8764.333085620108
0.046923366206780816 	 8636.165059507463
0.04775031817750407 	 8511.926496868184
0.04859184390150131 	 8391.577933672088
0.04944820021870039 	 8275.089243936167
0.05031964849543682 	 8162.373365551562
0.05120645470422477 	 8053.332666774438
0.05210888950493371 	 7947.840176686174
0.053027228327396064 	 7845.7127082329625
0.05396175145547025 	 7746.708479274231
0.05491274411258552 	 7650.492749715662
0.055880496548794185 	 7556.665125911527
0.056865304129358224 	 7464.770064839969
0.05786746742489677 	 7374.343088682014
0.05888729230312271 	 7284.929641823737
0.05992509002219568 	 7196.079069247716
0.060981177325720407 	 7107.298634475274
0.062055876539419234 	 7018.044287555915
0.06314951566950823 	 6927.709702105108
0.0642624285028073 	 6835.668373275531
0.0653949547086143 	 6741.342155769478
0.06654743994237469 	 6644.227064223105
0.0677202359511781 	 6543.894993767608
0.06891370068111427 	 6439.9712139878275
0.07012819838652065 	 6332.112217139894
0.07136409974115585 	 6220.017421107179
0.07262178195133179 	 6103.473992193323
0.07390162887103997 	 5982.410821743289
0.07520403111910663 	 5856.907907969654
0.0765293861984123 	 5727.172456840513
0.07787809861721298 	 5593.51678961139
0.07925058001259883 	 5456.3486189974265
0.08064724927612894 	 5316.21675830982
0.08206853268168023 	 5173.787495964591
0.08351486401554935 	 5029.859543622337
0.08498668470884738 	 4885.325772861368
0.0864844439722282 	 4741.129234555011
0.08800859893299065 	 4598.247398996532
0.08955961477459733 	 4457.657429083821
0.09113796487865204 	 4320.369439688692
0.09274413096937925 	 4187.331395489208
0.09437860326065022 	 4059.420621827165
0.09604188060559958 	 3937.4237306921377
0.09773447064887934 	 3822.006067610469
0.09945688998159559 	 3713.6889871056715
0.10120966429897614 	 3612.780390314413
0.10299332856081637 	 3519.4389031865153
0.10480842715475326 	 3433.5979686537603
0.10665551406241637 	 3355.0044292904236
0.10853515302850722 	 3283.209828540902
0.1104479177328584 	 3217.5297338934733
0.11239439196552477 	 3157.1367702178363
0.11437516980496076 	 3100.9638433001355
0.11639085579933747 	 3047.8874728270093
0.11844206515105525 	 2996.6910554413826
0.12052942390450806 	 2946.04280995674
0.12265356913715701 	 2894.687465563372
0.12481514915397077 	 2841.4522729761525
0.12701482368529363 	 2785.3358556666603
0.1292532640881998 	 2725.4545038026395
0.13153115355139652 	 2661.2837078950347
0.13384918730373874 	 2592.669702819225
0.13620807282641756 	 2519.677997696789
0.1386085300688893 	 2442.827509043428
0.14105129166860922 	 2362.941096320521
0.14353710317463797 	 2281.096346645469
0.14606672327518863 	 2198.6235015588413
0.14864092402918422 	 2116.9106081829514
0.15126049110189554 	 2037.4320683186347
0.15392622400473238 	 1961.5176853066416
0.1566389363392602 	 1890.2983866141049
0.15939945604551747 	 1824.7049854225477
0.1622086256547091 	 1765.2438068209556
0.16506730254635302 	 1712.0958410143821
0.16797635920995937 	 1665.032716107451
0.1709366835113203 	 1623.3917499901788
0.17394917896349343 	 1586.2767194912267
0.17701476500256075 	 1552.3979513339443
0.1801343772682475 	 1520.369659008108
0.18330896788948592 	 1488.7786478440144
0.18653950577501272 	 1456.206338191675
0.18982697690908695 	 1421.6206264846655
0.19317238465241976 	 1384.216669340218
0.19657675004840763 	 1343.705853810371
0.20004111213476217 	 1300.3202960998167
0.20356652826063265 	 1254.661178500457
0.20715407440931652 	 1207.7994345656361
0.2108048455266576 	 1160.9813731639906
0.21451995585523176 	 1115.5010082737874
0.2183005392744221 	 1072.5939424846877
0.22214774964648706 	 1033.1351311393073
0.2260627611687284 	 997.6611761338004
0.23004676873186444 	 966.2357254685944
0.23410098828471992 	 938.4237899535608
0.23822665720534264 	 913.4736759509505
0.24242503467866 	 890.3031705220344
0.24669740208079236 	 867.7804004595757
0.2510450633701381 	 844.8558655484647
0.25546934548535166 	 820.753422991013
0.25997159875033504 	 795.1033467042665
0.2645531972863668 	 767.9995029253355
0.2692155394314936 	 739.9535642605185
0.2739600481673145 	 711.7595445934726
0.2787881715532846 	 684.3405334840506
0.2837013831686738 	 658.5036987229884
0.28870118256231475 	 634.8013736779766
0.293789095710275 	 613.4012538574433
0.29896667548159805 	 594.0891726266299
0.30423550211224926 	 576.3159245810285
0.3095971836874161 	 559.3787044583996
0.31505335663230766 	 542.5840858571072
0.3206056862116039 	 525.4103262376516
0.326255867037707 	 507.6776608089899
0.3320056235879492 	 489.5057035219528
0.3378567107309167 	 471.29512727218133
0.3438109142620487 	 453.5786862691955
0.34987005144867434 	 436.79479669876173
0.35603597158465805 	 421.2323289654421
0.3623105565548163 	 406.8814215164392
0.36869572140928375 	 393.4875436487984
0.37519341494800046 	 380.68458617950756
0.38180562031550025 	 368.08163820952404
0.3885343556061812 	 355.45218728176974
0.39538167448024336 	 342.7583957667271
0.40234966679048056 	 330.16559101594953
0.4094404592201198 	 317.91693190755507
0.4166562159319003 	 306.24291795736497
0.4239991392285921 	 295.2640336401354
0.43147147022515603 	 284.9042421466998
0.43907548953274755 	 275.0257836087303
0.44681351795477725 	 265.42573218636505
0.4546879171952371 	 255.96810183402027
0.4627010905795096 	 246.65879028364773
0.4708554837878815 	 237.54683955121834
0.47915358560198307 	 228.75797560994158
0.48759792866438273 	 220.37620088526413
0.496191090251569 	 212.3780534294843
0.5049356930605542 	 204.71989730541182
0.5138344060093407 	 197.3094469353922
0.5228899450514957 	 190.077825216835
0.532105074005079 	 183.04448148506273
0.5414826053961826 	 176.22816662514472
0.5510254013173335 	 169.66431083325605
0.5607363743010254 	 163.38108389939958
0.5706184882086469 	 157.3371430890581
0.5806747591350724 	 151.49784265861385
0.5909082563291974 	 145.8496157039758
0.6013221031306967 	 140.3763284091797
0.6119194779232904 	 135.0898402355467
0.62270361510481 	 130.0064233085438
0.6336778060743615 	 125.11439168066434
0.6448454002368845 	 120.39609575802811
0.6562098060254159 	 115.84380867080569
0.6677744919413683 	 111.44953868752627
0.6795429876131437 	 107.20899489461765
0.6915188848734013 	 103.12285150155502
0.7037058388553125 	 99.18900314062786
0.716107569108134 	 95.39936964389369
0.7287278607324426 	 91.74379102072253
0.7415705655353763 	 88.21946723766393
0.754639603206233 	 84.82389718254623
0.7679389625127917 	 81.55370763070026
0.7814727025187111 	 78.40364072173173
0.7952449538223885 	 75.36769124109749
0.8092599198176481 	 72.4434488425597
0.8235218779766481 	 69.62655236237806
0.8380351811553974 	 66.91455201622894
0.8528042589222805 	 64.30316976393816
0.8678336189099926 	 61.78773438568448
0.8831278481913052 	 59.366086365139786
0.8986916146790739 	 57.034641068811254
0.914529668550919 	 54.790794496173866
0.9306468436990178 	 52.630974865392645
0.947048059205442 	 50.55129330612371
0.9637383208434996 	 48.55039910747079
0.9807227226055342 	 46.62446706849758
0.9980064482576492 	 44.770960424101936
1.0155947729218313 	 42.98767540356337
1.0334930646859581 	 41.27092662037451
1.0517067862421785 	 39.62043088123043
1.070241496554166 	 38.03051672385155
1.0891028525537567 	 36.50299493544521
1.1082966108674877 	 35.03162243167829
1.127828629573561 	 33.61790022461952
1.1477048699897734 	 32.25631184519631
1.1679313984929556 	 30.946249000866647
1.1885143883704752 	 29.683220625886715
1.2094601217043695 	 28.387916958451246
1.230774991288685 	 27.08563231811273
1.2524655025806049 	 25.844798386346437
1.2745382756859631 	 24.654487545144278
1.297000047379751 	 23.519486030766487
1.3198576731622305 	 22.43306210534002
1.343118129351283 	 21.39543934554502
1.3667885152116366 	 20.404988252926735
1.3908760551216106 	 19.456711367905847
1.4153881007780535 	 18.552073355706934
1.4403321334401327 	 17.68657744453917
1.4657157662126727 	 16.86004549624104
1.4915467463697303 	 16.06981680146104
1.5178329577191212 	 15.314557713265215
1.5445824230086154 	 14.59269696746723
1.5718033063745427 	 13.902578472833412
1.5995039158335442 	 13.242873210412375
1.6276927058182438 	 12.612142384927525
1.6563782797576032 	 12.009049971214587
1.6855693927027524 	 11.432367764785209
1.7152749539990964 	 10.880839901940437
1.7455040300055151 	 10.353351129376348
1.7762658468614814 	 9.848776101628847
1.8075697933029502 	 9.36607464213855
1.8394254235278698 	 8.904240251978118
1.871842460112193 	 8.462313680896722
1.9048307969772822 	 8.039383755674892
1.9384005024096065 	 7.634576095284425
1.9725618221336572 	 7.247064372056966
