###############
#    GaPSE    #
############### 
#
# Power Spectrum Multipole computation from two input vectors.
#
# For this PS_multipole computation we set: 
# 	 multipole degree in consideration L = 0
# 	 algorithm chosen for the computation: :fftlog
# 	 #points used in Fourier transform N = 500
# computational time needed (in s) : 0.0011
# kwards passed to "print_PS_multipole": 
# 		ν = 1.5
# 		cut_first_n = 0
# 		cut_last_n = 0
# 		n_extrap_high = 0
# 		n_pad = 500
# 		n_extrap_low = 0
# 
# k [h_0/Mpc] 	 	  P [(Mpc/h_0)^3]
0.00016369382206909115 	 14857.421886566895
0.00016657867325727587 	 14857.8530196312
0.00016951436549903702 	 14858.209971135475
0.00017250179478954422 	 14858.695201431361
0.0001755418729144996 	 14859.115916771532
0.00017863552772842304 	 14859.559451604759
0.00018178370343783885 	 14860.07858080522
0.00018498736088945543 	 14860.530202490356
0.0001882474778634232 	 14861.053059276059
0.00019156504937175922 	 14861.603490452104
0.00019494108796203375 	 14862.102014919024
0.000198376624026406 	 14862.711573212453
0.00020187270611610804 	 14863.275067416229
0.00020543040126147103 	 14863.866203483787
0.00020905079529758957 	 14864.525409427972
0.00021273499319572815 	 14865.137894201012
0.00021648411940056498 	 14865.81761284738
0.00022029931817338274 	 14866.526754953495
0.00022418175394130397 	 14867.203782916798
0.00022813261165268356 	 14867.979923420435
0.00023215309713876472 	 14868.727275512892
0.0002362444374817058 	 14869.508061700617
0.00024040788138909695 	 14870.353215820036
0.00024464469957507335 	 14871.170832073942
0.0002489561851481472 	 14872.054543485507
0.00025334365400587496 	 14872.971894434611
0.0002578084452364774 	 14873.875443616162
0.00026235192152754104 	 14874.870988634924
0.0002669754695819192 	 14875.854524215865
0.0002716805005409646 	 14876.878628079017
0.0002764684504152208 	 14877.966979170145
0.0002813407805227019 	 14879.046177506536
0.0002862989779348997 	 14880.193226965182
0.00029134455593064697 	 14881.380516748713
0.0002964790544579822 	 14882.571688826976
0.00030170404060415456 	 14883.852169418564
0.0003070211090739079 	 14885.137522942081
0.00031243188267619944 	 14886.472249666069
0.00031793801281949067 	 14887.874524194449
0.00032354118001577176 	 14889.285915981489
0.0003292430943934643 	 14890.769843795084
0.0003350454962193661 	 14892.3030358926
0.0003409501564297949 	 14893.85785497563
0.00034695887717108877 	 14895.503416958389
0.0003530734923496371 	 14897.171317985221
0.0003592958681916006 	 14898.899306226887
0.0003656279038124981 	 14900.701406771892
0.000372071531796832 	 14902.53129388097
0.00037862871878792506 	 14904.44129626437
0.00038530146608815717 	 14906.411986348765
0.00039209181026977566 	 14908.422580929753
0.00039900182379647294 	 14910.529133100683
0.0004060336156559195 	 14912.676362187149
0.0004131893320034396 	 14914.896364797685
0.0004204711568170375 	 14917.200045860141
0.0004278813125639603 	 14919.550845602871
0.0004354220608790135 	 14921.992026408801
0.0004430957032548295 	 14924.507514810108
0.00045090458174429777 	 14927.081885366686
0.00045885107967538 	 14929.760701971734
0.0004669376223785162 	 14932.499392133708
0.0004751666779268573 	 14935.32529019401
0.00048354075788953615 	 14938.246932239366
0.0004920624180982184 	 14941.235590210807
0.0005007342594271633 	 14944.327072969352
0.0005095589285870261 	 14947.508165143321
0.0005185391189326578 	 14950.767571451554
0.0005276775712851343 	 14954.142376415004
0.0005369770747682758 	 14957.596684132051
0.0005464404676599109 	 14961.15375722313
0.0005560706382581359 	 14964.820277237844
0.000565870525762849 	 14968.573723001373
0.0005758431211728129 	 14972.44370865869
0.0005859914681985311 	 14976.419372565204
0.0005963186641912126 	 14980.492520633412
0.0006068278610881032 	 14984.69330694017
0.0006175222663744842 	 14988.992789835242
0.0006284051440626175 	 14993.410683949116
0.0006394798156879472 	 14997.952148859513
0.0006507496613228599 	 15002.599505696693
0.0006622181206083031 	 15007.377158426209
0.0006738886938035944 	 15012.27611859909
0.0006857649428547217 	 15017.290450458608
0.0006978504924814808 	 15022.44459589383
0.0007101490312837625 	 15027.715147434703
0.0007226643128673422 	 15033.118715397175
0.0007354001569895114 	 15038.659198857256
0.0007483604507248906 	 15044.322691346133
0.000761549149651799 	 15050.12924361594
0.000774970279059522 	 15056.071397878559
0.0007886279351768615 	 15062.144908100167
0.000802526286422337 	 15068.369601704799
0.0008166695746764145 	 15074.726596210117
0.0008310621165761644 	 15081.229955065704
0.0008457083048327263 	 15087.882727088834
0.0008606126095720004 	 15094.674169578091
0.0008757795796989649 	 15101.620976331993
0.00089121384428603 	 15108.717261832342
0.0009069201139858729 	 15115.960408936113
0.0009229031824691568 	 15123.366945494567
0.0009391679278875985 	 15130.922174038764
0.0009557193143628191 	 15138.638615328355
0.0009725623935014248 	 15146.519380658483
0.0009897023059368016 	 15154.557054692143
0.0010071442828980682 	 15162.766499137027
0.001024893647806694 	 15171.144190430323
0.001042955817901239 	 15179.689934798871
0.0010613363058907398 	 15188.418908945514
0.0010800407216372313 	 15197.321265915029
0.0010990747738679123 	 15206.409808993074
0.0011184442719174993 	 15215.689490436174
0.0011381551275012718 	 15225.157454602711
0.0011582133565193745 	 15234.829105713878
0.001178625080892919 	 15244.705075364021
0.0011993965304324318 	 15254.789433385313
0.0012205340447392467 	 15265.09877436942
0.0012420440751403927 	 15275.629828535622
0.0012639331866575885 	 15286.398343144238
0.0012862080600109412 	 15297.413680663096
0.0013088754936579424 	 15308.679631057297
0.0013319424058684183 	 15320.215079063959
0.0013554158368360289 	 15332.027169631932
0.0013793029508269905 	 15344.126531653461
0.0014036110383666687 	 15356.534070540838
0.0014283475184646893 	 15369.25497512355
0.0014535199408792897 	 15382.310394032733
0.0014791359884215466 	 15395.716250271418
0.001505203479300241 	 15409.484508584404
0.001531730369508024 	 15423.6394911877
0.0015587247552496467 	 15438.196051803301
0.0015861948754129901 	 15453.172240116606
0.0016141491140836226 	 15468.59429922259
0.0016425960031036984 	 15484.475770065366
0.0016715442246759279 	 15500.843258275736
0.0017010026140134565 	 15517.718736474895
0.0017309801620364411 	 15535.121051119242
0.0017614860181161352 	 15553.078754024775
0.0017925294928673584 	 15571.612350380135
0.0018241200609901552 	 15590.74481802446
0.0018562673641615457 	 15610.505253084744
0.0018889812139782467 	 15630.912097709543
0.001922271594951228 	 15651.99413385577
0.001956148667553077 	 15673.77575370191
0.0019906227713190373 	 15696.278645459279
0.0020257044280027154 	 15719.53193603045
0.002061404344787407 	 15743.557852632797
0.0020977334175539945 	 15768.380548776424
0.002134702734206465 	 15794.028835536017
0.0021723235780560096 	 15820.522833396195
0.0022106074312647855 	 15847.891185613105
0.002249565978350347 	 15876.158905194226
0.002289211109751851 	 15905.349221338247
0.0023295549254591166 	 15935.491653437282
0.002370609738705614 	 15966.610491313124
0.002412388079726576 	 15998.73220957479
0.002454902699583302 	 16031.887485699084
0.002498166574054882 	 16066.100531202976
0.0025421929075985132 	 16101.403108710698
0.002586995137379577 	 16137.82436582812
0.0026325869373727837 	 16175.39255248563
0.0026789822225355554 	 16214.141220113046
0.0027261951530549795 	 16254.099732062834
0.0027742401386696147 	 16295.299218770882
0.002823131843067429 	 16337.773786457365
0.0028728851883612887 	 16381.551737883867
0.002923515359643283 	 16426.666757733776
0.00297503780961933 	 16473.149230718398
0.003027468263325472 	 16521.027702378968
0.003080822722927247 	 16570.333574090822
0.0031351174726037003 	 16621.09334414321
0.00319036908351741 	 16673.33353018634
0.0032465944188721425 	 16727.081536059733
0.003303810639059634 	 16782.358747156075
0.003362035206897052 	 16839.189830799864
0.003421285892956799 	 16897.595749451582
0.003481580780990201 	 16957.595419466215
0.003542938273446828 	 17019.209613645307
0.0036053770970910356 	 17082.45491797975
0.0036689163087175224 	 17147.347974017095
0.0037335753009676196 	 17213.906121686312
0.00379937380824804 	 17282.141847657855
0.0038663319127540006 	 17352.07022255663
0.003934470050598428 	 17423.702842766477
0.004003809018049226 	 17497.049028796417
0.004074369977876463 	 17572.118474299346
0.00414617446581138 	 17648.915986915785
0.004219244397119287 	 17727.44465667831
0.004293602073288237 	 17807.706016191984
0.004369270188835623 	 17889.69548173862
0.004446271838234722 	 17973.408442485852
0.00452463052296327 	 18058.83540672217
0.004604370158676328 	 18145.963433247456
0.004685515082505484 	 18234.778547015918
0.004768090060486738 	 18325.26189869674
0.004852120295119302 	 18417.392729172174
0.004937631433057552 	 18511.148628496056
0.0050246495729386175 	 18606.501947706187
0.005113201273347841 	 18703.424636060252
0.005203313560924701 	 18801.883927833227
0.0052950139386115005 	 18901.84325936033
0.00538833039404749 	 19003.2637417409
0.005483291408110921 	 19106.10076243214
0.005579925963611583 	 19210.30627430973
0.005678263554136614 	 19315.828971433464
0.005778334193052133 	 19422.611662004347
0.005880168422663547 	 19530.595596344338
0.005983797323537324 	 19639.717342997876
0.0060892525239869535 	 19749.910068106816
0.006196566209726213 	 19861.104954214967
0.006305771133692427 	 19973.228609414255
0.006416900626042935 	 20086.204920808683
0.006529988604327723 	 20199.954968022583
0.006645069583841265 	 20314.39470724711
0.006762178688156903 	 20429.438300164144
0.006881351659846776 	 20544.995418947645
0.007002624871390739 	 20660.972417430512
0.007126035336277538 	 20777.273580991816
0.007251620720301552 	 20893.79931501521
0.007379419353058732 	 21010.447976225198
0.0075094702396450224 	 21127.116037460288
0.007641813072561061 	 21243.696464033248
0.007776488243826588 	 21360.081551986044
0.007913536857308395 	 21476.160709236752
0.008053000741265567 	 21591.821401829195
0.008194922461115724 	 21706.949941696315
0.008339345332426366 	 21821.429835974028
0.008486313434135048 	 21935.143098025874
0.008635871622002626 	 22047.970207069488
0.0087880655423036 	 22159.788773668886
0.00894294164575763 	 22270.47588239895
0.009100547201706721 	 22379.90632474351
0.009260930312542107 	 22487.95350784069
0.009424139928385492 	 22594.49007550786
0.009590225862029015 	 22699.38656466342
0.009759238804138433 	 22802.512380297565
0.009931230338724352 	 22903.735546954656
0.010106252958885984 	 23002.92141272406
0.01028436008283249 	 23099.934326586455
0.010465606070186586 	 23194.636042956485
0.010650046238575517 	 23286.886534232297
0.010837736880514395 	 23376.54453547116
0.011028735280587112 	 23463.46644684512
0.011223099732930016 	 23547.506845846583
0.011420889559023713 	 23628.517771351468
0.011622165125798424 	 23706.347285080094
0.011826987864058438 	 23780.840761916934
0.012035420287231216 	 23851.839803690284
0.012247526010447003 	 23919.18319680201
0.012463369769954599 	 23982.707366839542
0.012683017442879375 	 24042.245539114847
0.012906536067329447 	 24097.62855113036
0.013133993862856196 	 24148.685028419517
0.013365460251275413 	 24195.24087401841
0.013601005877855336 	 24237.120285244324
0.013840702632878116 	 24274.144391002992
0.014084623673581272 	 24306.13208640807
0.014332843446485805 	 24332.901401607574
0.01458543771011786 	 24354.270342281096
0.014842483558130786 	 24370.058440058896
0.015104059442834683 	 24380.08673615423
0.015370245199140637 	 24384.17690072539
0.015641122068926937 	 24382.152332473626
0.015916772725834687 	 24373.83862881484
0.016197281300500434 	 24359.06661997959
0.016482733406233463 	 24337.674903906947
0.016773216165145606 	 24309.509785187292
0.01706881823474159 	 24274.424219755703
0.017369629834977904 	 24232.276612883612
0.017675742775798687 	 24182.931967699627
0.017987250485156748 	 24126.266008363247
0.018304248037528503 	 24062.16633624009
0.018626832182931395 	 23990.531779502046
0.01895510137645274 	 23911.27071583943
0.019289155808298923 	 23824.301310047424
0.019629097434374236 	 23729.554507692
0.019975030007398562 	 23626.975103121098
0.020327059108573468 	 23516.519663602387
0.02068529217980641 	 23398.155773862138
0.02104983855650274 	 23271.86394391016
0.021420809500935768 	 23137.641849172316
0.021798318236204768 	 22995.504755004833
0.022182479980791564 	 22845.48399399189
0.022573411983726033 	 22687.628822393686
0.022971233560371423 	 22522.007880997287
0.023376066128840217 	 22348.70800042349
0.023788033247051952 	 22167.835113456887
0.02420726065044393 	 21979.515904169264
0.02463387629034666 	 21783.900800333195
0.02506801037303554 	 21581.16565306698
0.025509795399470767 	 21371.510739002388
0.02595936620573766 	 21155.16359247732
0.02641686000419961 	 20932.37817733293
0.026882416425376313 	 20703.428956542517
0.027356177560560076 	 20468.617161571416
0.027838288005183117 	 20228.274857620527
0.028328894902949125 	 19982.758135335574
0.028828147990742733 	 19732.4378370515
0.029336199644330218 	 19477.70118494733
0.029853204924865775 	 19218.965773970507
0.030379321626217346 	 18956.667530843963
0.03091471032312642 	 18691.258777053892
0.031459534420216734 	 18423.224142053405
0.032013960201866525 	 18153.05038735453
0.03257815688295978 	 17881.236242093437
0.03315229666053186 	 17608.313721708077
0.03373655476632538 	 17334.810733274837
0.03433110952027212 	 17061.266107686282
0.034936142384917754 	 16788.227029554262
0.03555183802080546 	 16516.230759592447
0.03617838434283574 	 16245.835732626303
0.03681597257761947 	 15977.587175168515
0.03746479732184159 	 15712.009140521046
0.038125056601653586 	 15449.62160516298
0.03879695193311249 	 15190.917979447471
0.039480688383685084 	 14936.382867529452
0.04017647463483602 	 14686.46835671244
0.040884523045719004 	 14441.597588591394
0.041605049717990256 	 14202.182567765361
0.04233827456176454 	 13968.588314344219
0.04308442136273326 	 13741.14499841648
0.04384371785046551 	 13520.137206186262
0.04461639576791292 	 13305.80379312569
0.04540269094213918 	 13098.335173209638
0.04620284335629643 	 12897.843170534203
0.04701709722286974 	 12704.383589814233
0.047845701058212654 	 12517.949024799282
0.04868890775839621 	 12338.451608072413
0.04954697467639474 	 12165.745485983654
0.05042016370063185 	 11999.621047165805
0.0513087413349108 	 11839.794549138986
0.05221297877975341 	 11685.90432915801
0.053133152015172484 	 11537.517537293437
0.05406954188490303 	 11394.125342072435
0.05502243418211768 	 11255.123442702266
0.05599211973665313 	 11119.838710943724
0.05697889450377343 	 10987.514594454078
0.057983059654497814 	 10857.339945156007
0.05900492166752025 	 10728.481855686607
0.06004479242274916 	 10600.062817145756
0.061102989296495304 	 10471.183067010923
0.062179835258337576 	 10340.896598281428
0.06327565896969566 	 10208.231326821664
0.06439079488413992 	 10072.229551301387
0.06552558334946922 	 9931.972246412619
0.06668037071158739 	 9786.6338836708
0.06785550942021089 	 9635.48605272877
0.06905135813643884 	 9477.897255050371
0.0702682818422192 	 9313.346057612926
0.07150665195174392 	 9141.441194010014
0.07276684642480737 	 8961.976114695342
0.07404924988216235 	 8774.943384190932
0.07535425372290946 	 8580.55140125081
0.07668225624395482 	 8379.225486357927
0.07803366276157331 	 8171.5931313743295
0.07940888573511422 	 7958.484354468523
0.08080834489288667 	 7740.924910246694
0.08223246736026411 	 7520.155221972023
0.08368168779004603 	 7297.564831863127
0.08515644849511722 	 7074.671362799306
0.086657199583445 	 6853.087872923433
0.08818439909545558 	 6634.4595760693355
0.08973851314383122 	 6420.437408858439
0.0913200160557715 	 6212.627849147618
0.09292939051776153 	 6012.555492957861
0.09456712772289128 	 5821.5773845531885
0.09623372752077157 	 5640.8796667090255
0.09792969857009166 	 5471.421055926577
0.09965555849386602 	 5313.890414773125
0.10141183403741642 	 5168.701974014937
0.1031990612291387 	 5035.926782995219
0.10501778554410254 	 4915.335113758376
0.10686856207053463 	 4806.346557031866
0.10875195567923565 	 4708.06460438001
0.11066854119598307 	 4619.270021562253
0.11261890357697225 	 4538.410384171499
0.11460363808734955 	 4463.734291596145
0.11662335048289144 	 4393.2486577002865
0.11867865719488602 	 4324.858784306409
0.12077018551827211 	 4256.4038377002535
0.12289857380309457 	 4185.766512730317
0.1250644716493335 	 4111.073379443055
0.12726854010516675 	 4030.657399186269
0.12951145186872706 	 3943.2718470688847
0.13179389149341447 	 3848.181301698472
0.13411655559682686 	 3745.21012796743
0.13648015307337324 	 3634.793237468023
0.13888540531063343 	 3517.9095434176916
0.1413330464095307 	 3396.1386844244284
0.14382382340838534 	 3271.4743296524116
0.14635849651091584 	 3146.1754666973693
0.14893783931825907 	 3022.7031436442558
0.15156263906507902 	 2903.430992157643
0.15423369685983654 	 2790.5296671529227
0.15695182792929382 	 2685.8194863393296
0.15971786186732767 	 2590.5848036369807
0.16253264288812758 	 2505.570946095146
0.1653970300838563 	 2430.8339758368093
0.1683118976868514 	 2365.7861003504536
0.1712781353364469 	 2309.2676908543554
0.17429664835049855 	 2259.4882055156727
0.177368358001693 	 2214.350410688296
0.18049420179872755 	 2171.452266481021
0.18367513377244452 	 2128.368648780025
0.1869121247670085 	 2082.9722780210527
0.19020616273621563 	 2033.4597547055653
0.19355825304502414 	 1978.7977330236456
0.19696941877639912 	 1918.6846712738209
0.20044070104356557 	 1853.6147219951538
0.20397315930776347 	 1784.9453076418852
0.20756787170160332 	 1714.4659118590228
0.2112259353581205 	 1644.3784929041558
0.21494846674562818 	 1576.9103035334967
0.21873660200847195 	 1513.8683320853215
0.22259149731378944 	 1456.7598029665394
0.22651432920438125 	 1406.1925016959224
0.23050629495780045 	 1362.0690838873998
0.2345686129517708 	 1323.6446362005604
0.23870252303604467 	 1289.391712160793
0.2429092869108142 	 1257.5768222800018
0.24719018851179209 	 1226.2866091797691
0.2515465344020777 	 1193.8033437120043
0.25597965417093055 	 1159.0094270686095
0.2604909008395704 	 1121.4160383863368
0.26508165127412947 	 1081.2800391979138
0.2697533066058827 	 1039.688190912784
0.2745072926588827 	 997.9300501938618
0.27934506038513246 	 957.5962830958559
0.28426808630742684 	 920.0461568176136
0.2892778729699975 	 885.9522236116702
0.2943759493971017 	 855.631576480739
0.2995638715596913 	 828.5195546733497
0.30484322285030635 	 803.6421012031356
0.3102156145663393 	 779.8336516768751
0.315682686401814 	 755.9173169287549
0.32124610694783323 	 731.1046576804746
0.32690757420184474 	 705.2199838509704
0.33266881608588306 	 678.5488009606835
0.33853159097394375 	 651.8303952911555
0.34449768822865273 	 626.042464131876
0.3505689287473928 	 601.7823560278508
0.3567471655180553 	 579.5443649257226
0.3630342841845856 	 559.161589172343
0.36943220362249585 	 540.145110281084
0.3759428765245203 	 521.9117885620756
0.38256828999659115 	 503.78363114934973
0.3893104661643186 	 485.5187806924583
0.39617146279015836 	 467.07599036038687
0.4031533739014565 	 448.81177753738467
0.4102583304295616 	 431.0952036361178
0.4174885008602016 	 414.28012336607065
0.424846091895321 	 398.5407079784407
0.43233334912658367 	 383.6937476949187
0.4399525577207435 	 369.56937824205505
0.44770604311709433 	 355.799595239868
0.4555961717372122 	 342.18471626313936
0.4636253517072036 	 328.753302409436
0.4717960335926845 	 315.5663557538333
0.4801107111467109 	 302.881730445481
0.4885719220708909 	 290.83688053676326
0.4971822487899101 	 279.3799449214429
0.5059443192397071 	 268.43375530889534
0.5148608076695385 	 257.7972628119581
0.5239344354581809 	 247.36635433740386
0.5331679719445147 	 237.22242225868084
0.5425642352727479 	 227.4097595588276
0.5521260932525344 	 217.99770168670642
0.5618564642342508 	 209.00650182244928
0.5717583179996988 	 200.33159662384907
0.581834676668505 	 191.93345104887962
0.5920886156204938 	 183.8163846079433
0.6025232644343167 	 175.9643353394535
0.6131418078426232 	 168.39168225015504
0.6239474867040643 	 161.10660465387394
0.6349435989924274 	 154.08488789579357
0.6461335008032022 	 147.31602275804013
0.6575206073778856 	 140.8042488876387
0.6691083941463404 	 134.52445041197973
0.6809003977875204 	 128.44912069921486
0.6929002173088927 	 122.58838075272666
0.7051115151448814 	 116.9670217179611
0.7175380182746685 	 111.57113268797677
0.7301835193596982 	 106.35052312198472
0.7430518779012232 	 101.29906804427351
0.7561470214182548 	 96.457332018547
0.7694729466462702 	 91.82082350400843
0.7830337207570459 	 87.3301950631495
0.7968334825999892 	 82.9877878562528
0.8108764439653464 	 78.84394516826197
0.8251668908696714 	 74.8622989483268
0.8397091848639511 	 70.99526917129926
0.8545077643647822 	 67.28871019530163
0.86956714600901 	 63.75280238584103
0.8848919260322392 	 60.32194084410472
0.9004867816716393 	 57.017128899328334
0.9163564725934723 	 53.876110984262546
0.9325058423457786 	 50.835188051298765
0.9489398198366633 	 47.90053712660105
0.965663420838637 	 45.11419495619781
0.9826817495194652 	 42.417137448371406
1.0 	 39.82105739291043
