###############
#    GaPSE    #
############### 
#
# Power Spectrum Multipole computation from two input vectors.
#
# For this PS_multipole computation we set: 
# 	 multipole degree in consideration L = 2
# 	 algorithm chosen for the computation: :fftlog
# 	 #points used in Fourier transform N = 500
# computational time needed (in s) : 0.0022
# kwards passed to "print_PS_multipole": 
# 		ν = 1.5
# 		cut_first_n = 0
# 		cut_last_n = 0
# 		n_extrap_high = 0
# 		n_pad = 500
# 		n_extrap_low = 0
# 
# k [h_0/Mpc] 	 	  P [(Mpc/h_0)^3]
0.0004910814662072734 	 1128.3827154575938
0.0004997360197718276 	 1159.949541099214
0.0005085430964971111 	 1192.120580553897
0.0005175053843686327 	 1224.8940588767316
0.0005266256187434989 	 1258.2552782381576
0.0005359065831852691 	 1292.2023543649732
0.0005453511103135166 	 1326.722988359293
0.0005549620826683663 	 1361.803199556029
0.0005647424335902696 	 1397.436027756226
0.0005746951481152776 	 1433.6022813713012
0.0005848232638861013 	 1470.2876893674957
0.000595129872079218 	 1507.4785334968526
0.0006056181183483241 	 1545.1503365203534
0.0006162912037844131 	 1583.2886945959456
0.0006271523858927688 	 1621.8702998172587
0.0006382049795871844 	 1660.8704751826629
0.000649452358201695 	 1700.269978840251
0.0006608979545201482 	 1740.0396020689905
0.0006725452618239119 	 1780.154339925073
0.0006843978349580507 	 1820.5896562824992
0.0006964592914162942 	 1861.3127193690152
0.0007087333124451173 	 1902.2993631653937
0.0007212236441672908 	 1943.5186899735143
0.00073393409872522 	 1984.9396597833836
0.0007468685554444416 	 2026.5365108923966
0.0007600309620176249 	 2068.2765631037128
0.0007734253357094322 	 2110.1320314853806
0.0007870557645826232 	 2152.076961346222
0.0008009264087457577 	 2194.080566188564
0.0008150415016228937 	 2236.1211460353747
0.0008294053512456623 	 2278.173699417372
0.0008440223415681057 	 2320.2157512446784
0.0008588969338046992 	 2362.2317478241707
0.0008740336677919409 	 2404.203476435407
0.0008894371633739467 	 2446.1199487337444
0.0009051121218124637 	 2487.974913311671
0.0009210633272217236 	 2529.7618106135133
0.0009372956480285984 	 2571.4851559536073
0.0009538140384584721 	 2613.150502577805
0.0009706235400473153 	 2654.7694480466794
0.0009877292831803929 	 2696.3630347786666
0.0010051364886580984 	 2737.9540274658307
0.0010228504692893848 	 2779.574903527259
0.0010408766315132662 	 2821.2655125952647
0.0010592204770489113 	 2863.0688877154275
0.0010778876045748017 	 2905.0401007697233
0.0010968837114374943 	 2947.237613346183
0.0011162145953904962 	 2989.726979678121
0.0011358861563637752 	 3032.5828198743584
0.0011559043982644714 	 3075.88188946629
0.001176275430809327 	 3119.708770862412
0.0011970054713894187 	 3164.1529056156332
0.0012181008469677585 	 3209.3042743390542
0.001239567996010319 	 3255.259409737808
0.0012614134704511126 	 3302.1131088189604
0.0012836439376918808 	 3349.9603071375773
0.0013062661826370406 	 3398.8962513351653
0.0013292871097644885 	 3449.009630955786
0.0013527137452328934 	 3500.3859546444387
0.0013765532390261398 	 3553.1038328272075
0.0014008128671355485 	 3607.2304701805947
0.0014255000337805718 	 3662.8255696886263
0.0014506222736686085 	 3719.933830373669
0.0014761872542946553 	 3778.5861153649093
0.00150220277828149 	 3838.7993486576174
0.0015286767857610782 	 3900.5712361713704
0.0015556173567979736 	 3963.883703961752
0.0015830327138554028 	 4028.7009541632997
0.0016109312243048274 	 4094.967548199892
0.0016393214029797327 	 4162.613741336586
0.0016682119147744077 	 4231.552092766471
0.001697611577288547 	 4301.681757994062
0.0017275293635184387 	 4372.89205779006
0.0017579744045955932 	 4445.062389225938
0.001788955992573638 	 4518.0694916625625
0.0018204835832643096 	 4591.79044004082
0.0018525667991234527 	 4666.105786964556
0.0018852154321878523 	 4740.9083004267795
0.0019184394470638415 	 4816.104188753254
0.0019522489839685798 	 4891.61997198503
0.0019866543618249095 	 4967.407678537986
0.0020216660814107836 	 5043.445966863877
0.002057294828564165 	 5119.745724187653
0.0020935514774444424 	 5196.350461557658
0.0021304470938512876 	 5273.335090244205
0.0021679929386020265 	 5350.80725042035
0.0022062004709685343 	 5428.900654110691
0.0022450813521746717 	 5507.7713386934865
0.002284647448955397 	 5587.590997106693
0.002324910837178566 	 5668.536074710769
0.002365883805530584 	 5750.780051807614
0.0024075788592670113 	 5834.481777091963
0.0024500087240292437 	 5919.773731282719
0.0024931863497284932 	 6006.754398031384
0.002537124914498179 	 6095.477201016714
0.0025818378287160012 	 6185.945776958891
0.0026273387390968943 	 6278.11144550622
0.00267364153285809 	 6371.872447307343
0.002720760341957619 	 6467.081003150393
0.0027687095474074703 	 6563.552089100669
0.0028175037836627955 	 6661.076337973138
0.0028671579430884575 	 6759.438986453129
0.0029176871805042743 	 6858.436924552064
0.002969106917810405 	 6957.899475488627
0.003021432848694205 	 7057.706847725888
0.003074680943420082 	 7157.8033704541585
0.0031288674537037174 	 7258.207928065231
0.0031840089176722194 	 7359.014812085977
0.0032401221649116943 	 7460.386101252951
0.0032972243216037368 	 7562.537391970745
0.003355332815752498 	 7665.712316084163
0.0034144653825038157 	 7770.153796393396
0.0034746400695581238 	 7876.071879692109
0.0035358752426787577 	 7983.611758335551
0.0035981895912972953 	 8092.830181449942
0.00366160213421774 	 8203.68065637914
0.003726132225421178 	 8316.0128425216
0.0037917995599727654 	 8429.589591349384
0.0038586241800328235 	 8544.116743731991
0.003926626480973827 	 8659.287116569833
0.0039958272176052545 	 8774.829860568567
0.004066247510508087 	 8890.556627958422
0.004137908852480971 	 9006.398286675478
0.004210833115100006 	 9122.42052469357
0.004285042555394069 	 9238.814129040786
0.004360559822637869 	 9355.859921966892
0.00443740796526464 	 9473.869243086125
0.004515610437900723 	 9593.113931563405
0.004595191108524072 	 9713.758258157759
0.00467617426574894 	 9835.809014628845
0.00475858462623897 	 9959.100520884851
0.004842447342250868 	 10083.320151764929
0.004927788009311095 	 10208.07403678847
0.005014632674027784 	 10332.981041236033
0.005103007842040369 	 10457.769492291318
0.005192940486109323 	 10582.351848629805
0.005284458054348406 	 10706.850334354722
0.0053775884786020755 	 10831.55925417456
0.005472360182970466 	 10956.849932284522
0.0055688020924846374 	 11083.040710479361
0.0056669436419347395 	 11210.273297910437
0.005766814784853684 	 11338.440914638271
0.005868446002659232 	 11467.198978150787
0.005971868313957111 	 11596.066681148259
0.006077113284008147 	 11724.589445817544
0.006184213034362222 	 11852.503526695004
0.006293200252661983 	 11979.83525704928
0.006404108202619396 	 12106.882348358447
0.006516970734168029 	 12234.071938824052
0.006631822293794356 	 12361.746852015596
0.006748697935051041 	 12489.972324561071
0.006867633329255554 	 12618.463066500979
0.00698866477637735 	 12746.681677726128
0.007111829216116842 	 12874.076575305726
0.007237164239179729 	 13000.346970341634
0.007364708098749906 	 13125.587141981974
0.0074944997221646475 	 13250.21172638905
0.00762657872279554 	 13374.68170961882
0.00776098541213873 	 13499.177487389594
0.007897760812118352 	 13623.424582993053
0.008036946667606666 	 13746.805610644116
0.008178585459164939 	 13868.714347864317
0.008322720416008844 	 13988.929155809172
0.008469395529202286 	 14107.733054310429
0.008618655565083866 	 14225.660372128914
0.00877054607892985 	 14343.02620300492
0.008925113428857991 	 14459.593799354801
0.009082404789976416 	 14574.673771168413
0.00924246816878174 	 14687.618312772045
0.0094053524178111 	 14798.314034217214
0.00957110725055223 	 14907.221107120835
0.009739783256616426 	 15014.871095400102
0.009911431917178902 	 15121.255362712105
0.010086105620691156 	 15225.71052790191
0.010263857678870397 	 15327.473728905137
0.010444742342970603 	 15426.382491013113
0.010628814820340483 	 15522.959162309491
0.010816131291273106 	 15617.717234911475
0.011006748926152568 	 15710.427204118625
0.011200725902902858 	 15800.230991456883
0.01139812142474412 	 15886.548083722171
0.011598995738262001 	 15969.683582416095
0.011803410151795285 	 16050.29781157258
0.012011427054147678 	 16128.351410371342
0.012223109933629388 	 16202.968331864544
0.01243852339743414 	 16273.504089180024
0.01265773319135786 	 16340.333186699043
0.012880806219864711 	 16404.113134323776
0.01310781056650687 	 16464.551853715275
0.013338815514704165 	 16520.6528085115
0.01357389156888981 	 16572.159068781264
0.013813110476028984 	 16619.798662595065
0.01405654524751645 	 16663.792678834976
0.014304270181460214 	 16703.20843737362
0.014556360885357908 	 16737.45025749872
0.014812894299172655 	 16767.178867713206
0.015073948718815853 	 16792.780247419898
0.015339603820043525 	 16813.32516840659
0.015609940682774104 	 16828.24068484619
0.0158850418158345 	 16838.292331955246
0.01616499118214247 	 16843.664043812434
0.016449874224332764 	 16843.278209355103
0.01673977789083475 	 16837.028081717846
0.017034790662409843 	 16825.794256571473
0.0173350025791564 	 16809.057083924057
0.01764050526799064 	 16785.948853284495
0.01795139197061197 	 16757.23927658206
0.018267757571960863 	 16723.099598443438
0.018589698629178638 	 16682.44380247317
0.01891731340107728 	 16635.700628881903
0.019250701878128804 	 16583.435821761133
0.019589965812983168 	 16524.58169050452
0.019935208751523794 	 16459.42184420347
0.020286536064470707 	 16388.63919207662
0.020644054979540326 	 16311.144629764138
0.021007874614172216 	 16227.44163240859
0.021378106008832616 	 16137.998528076094
0.021754862160904654 	 16041.76010215006
0.022138258059176196 	 15939.740747805148
0.022528410718935066 	 15831.668711283859
0.022925439217683186 	 15717.167158856462
0.023329464731479763 	 15597.232058785903
0.023740610571925183 	 15471.012167673882
0.024159002223796702 	 15339.252500505343
0.024584767383347174 	 15201.914673204863
0.0250180359972791 	 15058.90179898118
0.025458940302405142 	 14910.875987898118
0.02590761486600788 	 14757.457843538132
0.0263641966269108 	 14599.334255549884
0.026828824937272896 	 14436.406528617727
0.027301641605120164 	 14269.039383409267
0.027782790937626322 	 14097.53190253395
0.028272419785156475 	 13922.004394556126
0.028770677586087045 	 13742.946116277024
0.029277716412415302 	 13560.490286674052
0.029793691016173057 	 13375.07032194494
0.030318758876657952 	 13186.99260749043
0.030853080248497467 	 12996.596719748175
0.03139681821055976 	 12804.274246364772
0.03195013871572655 	 12610.406343611128
0.03251321064154318 	 12415.338897436426
0.033086205841761335 	 12219.541180881744
0.03366929919879005 	 12023.360361443629
0.03426266867707114 	 11827.21986826136
0.03486649537739527 	 11631.57393748406
0.03548096359217531 	 11436.757020827576
0.03610626086169365 	 11243.263259344489
0.036742578031341004 	 11051.456727258803
0.0373901093098638 	 10861.724490918617
0.038049052328638124 	 10674.516064822792
0.038719608201988345 	 10490.139962347594
0.03940198158856859 	 10309.005266468039
0.04009638075382624 	 10131.454597456122
0.04080301763356601 	 9957.770990114295
0.04152210789863435 	 9788.320347611892
0.042253871020743815 	 9623.314866625755
0.042998530339457414 	 9463.014087928532
0.04375631313035358 	 9307.646827344282
0.04452745067439236 	 9157.339186507088
0.04531217832850405 	 9012.273598032707
0.04611073559742191 	 8872.50179241279
0.046923366206780816 	 8738.065158985371
0.04775031817750407 	 8608.990543131633
0.04859184390150131 	 8485.184308842334
0.04944820021870039 	 8366.563687155676
0.05031964849543682 	 8252.95655869489
0.05120645470422477 	 8144.1383990611575
0.05210888950493371 	 8039.852078909951
0.053027228327396064 	 7939.7361177267085
0.05396175145547025 	 7843.425639572365
0.05491274411258552 	 7750.456628005534
0.055880496548794185 	 7660.330977891845
0.056865304129358224 	 7572.496454598421
0.05786746742489677 	 7486.346448942926
0.05888729230312271 	 7401.2507141652995
0.05992509002219568 	 7316.509087056025
0.060981177325720407 	 7231.451467391965
0.062055876539419234 	 7145.32154478016
0.06314951566950823 	 7057.417962007055
0.0642624285028073 	 6967.031287192067
0.0653949547086143 	 6873.462268191827
0.06654743994237469 	 6776.086792934199
0.0677202359511781 	 6674.305280493945
0.06891370068111427 	 6567.624863987091
0.07012819838652065 	 6455.632891561855
0.07136409974115585 	 6338.033842599665
0.07262178195133179 	 6214.667658742192
0.07390162887103997 	 6085.510575058384
0.07520403111910663 	 5950.693818197684
0.0765293861984123 	 5810.5227413809425
0.07787809861721298 	 5665.439200578223
0.07925058001259883 	 5516.087078786547
0.08064724927612894 	 5363.218141132636
0.08206853268168023 	 5207.766324698997
0.08351486401554935 	 5050.760933138465
0.08498668470884738 	 4893.329782086616
0.0864844439722282 	 4736.696012878381
0.08800859893299065 	 4582.064982067087
0.08955961477459733 	 4430.714696295012
0.09113796487865204 	 4283.811688084852
0.09274413096937925 	 4142.5155857049
0.09437860326065022 	 4007.841144554311
0.09604188060559958 	 3880.666104699431
0.09773447064887934 	 3761.736280637615
0.09945688998159559 	 3651.534121054309
0.10120966429897614 	 3550.4158746752405
0.10299332856081637 	 3458.419451970459
0.10480842715475326 	 3375.406692341629
0.10665551406241637 	 3300.9685682492536
0.10853515302850722 	 3234.421863480248
0.1104479177328584 	 3174.9300689585484
0.11239439196552477 	 3121.311504365156
0.11437516980496076 	 3072.3258537786514
0.11639085579933747 	 3026.474453522159
0.11844206515105525 	 2982.1931194044737
0.12052942390450806 	 2937.921081989097
0.12265356913715701 	 2892.016618675453
0.12481514915397077 	 2843.110271016162
0.12701482368529363 	 2789.891611797953
0.1292532640881998 	 2731.432972918726
0.13153115355139652 	 2667.162968346741
0.13384918730373874 	 2596.853623796434
0.13620807282641756 	 2520.8572518655424
0.1386085300688893 	 2439.8380298977854
0.14105129166860922 	 2354.946320128019
0.14353710317463797 	 2267.676173183426
0.14606672327518863 	 2179.6636270401646
0.14864092402918422 	 2092.782295088786
0.15126049110189554 	 2008.7782079892393
0.15392622400473238 	 1929.2730294989701
0.1566389363392602 	 1855.6836979430052
0.15939945604551747 	 1788.9366826928424
0.1622086256547091 	 1729.6565786292674
0.16506730254635302 	 1677.924947506607
0.16797635920995937 	 1633.3065543069144
0.1709366835113203 	 1595.053977603888
0.17394917896349343 	 1561.8036065393942
0.17701476500256075 	 1532.0723700581511
0.1801343772682475 	 1504.1010525983604
0.18330896788948592 	 1476.0177527686208
0.18653950577501272 	 1446.3164834941201
0.18982697690908695 	 1413.5251214372795
0.19317238465241976 	 1376.870177101716
0.19657675004840763 	 1336.0862935566938
0.20004111213476217 	 1291.418567248321
0.20356652826063265 	 1243.914202223787
0.20715407440931652 	 1194.8258108368866
0.2108048455266576 	 1145.7805011229043
0.21451995585523176 	 1098.506869516348
0.2183005392744221 	 1054.2903939982152
0.22214774964648706 	 1014.3608676240698
0.2260627611687284 	 979.2115619365469
0.23004676873186444 	 948.7694975833435
0.23410098828471992 	 922.6081828373638
0.23822665720534264 	 899.5556188787415
0.24242503467866 	 878.3731309193884
0.24669740208079236 	 857.6405286300791
0.2510450633701381 	 836.0274142274097
0.25546934548535166 	 812.6813925881115
0.25997159875033504 	 787.205859707925
0.2645531972863668 	 759.7064995480966
0.2692155394314936 	 731.0081660584142
0.2739600481673145 	 702.0382946785967
0.2787881715532846 	 673.9497932682087
0.2837013831686738 	 647.851011343635
0.28870118256231475 	 624.1873648251058
0.293789095710275 	 603.2860330861179
0.29896667548159805 	 584.7560454987193
0.30423550211224926 	 567.8775687340896
0.3095971836874161 	 551.8331060112364
0.31505335663230766 	 535.7275148964853
0.3206056862116039 	 518.9537532670548
0.326255867037707 	 501.3458668920683
0.3320056235879492 	 483.0911436361855
0.3378567107309167 	 464.6694191078653
0.3438109142620487 	 446.84928389529097
0.34987005144867434 	 430.04899711173596
0.35603597158465805 	 414.6850194830268
0.3623105565548163 	 400.69947616154207
0.36869572140928375 	 387.7174387043222
0.37519341494800046 	 375.3619588537833
0.38180562031550025 	 363.07098651429646
0.3885343556061812 	 350.65247902533395
0.39538167448024336 	 338.0341682375615
0.40234966679048056 	 325.47031769324207
0.4094404592201198 	 313.2615749418378
0.4166562159319003 	 301.6709745492947
0.4239991392285921 	 290.87988019557594
0.43147147022515603 	 280.7261251576267
0.43907548953274755 	 271.08779813161294
0.44681351795477725 	 261.69022747149194
0.4546879171952371 	 252.36532903440198
0.4627010905795096 	 243.1660577160317
0.4708554837878815 	 234.1264075382824
0.47915358560198307 	 225.42505822968275
0.48759792866438273 	 217.16592043240513
0.496191090251569 	 209.2964518346569
0.5049356930605542 	 201.7830154663115
0.5138344060093407 	 194.50387122619193
0.5228899450514957 	 187.36923344780035
0.532105074005079 	 180.42883704497217
0.5414826053961826 	 173.69667291964663
0.5510254013173335 	 167.21638568573167
0.5607363743010254 	 161.03433825269886
0.5706184882086469 	 155.08784203484123
0.5806747591350724 	 149.3369594410811
0.5909082563291974 	 143.773031372772
0.6013221031306967 	 138.37441734753884
0.6119194779232904 	 133.15899050989896
0.62270361510481 	 128.15060476187162
0.6336778060743615 	 123.3336192300136
0.6448454002368845 	 118.68497968633613
0.6562098060254159 	 114.19918361650855
0.6677744919413683 	 109.86856678905022
0.6795429876131437 	 105.68810555595493
0.6915188848734013 	 101.6614081590758
0.7037058388553125 	 97.7859252801811
0.716107569108134 	 94.05200938838237
0.7287278607324426 	 90.44913756143893
0.7415705655353763 	 86.97542609781978
0.754639603206233 	 83.6293681561176
0.7679389625127917 	 80.40711786336793
0.7814727025187111 	 77.3026908199202
0.7952449538223885 	 74.31026549123838
0.8092599198176481 	 71.42838030042016
0.8235218779766481 	 68.65239977679619
0.8380351811553974 	 65.97966034946747
0.8528042589222805 	 63.4058231393331
0.8678336189099926 	 60.926428658779216
0.8831278481913052 	 58.53993904253208
0.8986916146790739 	 56.24208230087263
0.914529668550919 	 54.03030884022373
0.9306468436990178 	 51.90158281131857
0.947048059205442 	 49.85180648035918
0.9637383208434996 	 47.87976787523541
0.9807227226055342 	 45.98123346094898
0.9980064482576492 	 44.15425124418621
1.0155947729218313 	 42.39684100227395
1.0334930646859581 	 40.70436528786768
1.0517067862421785 	 39.07772450887397
1.070241496554166 	 37.510372163580676
1.0891028525537567 	 36.00523283160547
1.1082966108674877 	 34.5546576454116
1.127828629573561 	 33.16184914910199
1.1477048699897734 	 31.820485843475517
1.1679313984929556 	 30.529989813621516
1.1885143883704752 	 29.291633743963608
1.2094601217043695 	 28.0102339241517
1.230774991288685 	 26.716673441854507
1.2524655025806049 	 25.49079223194406
1.2745382756859631 	 24.313940835727593
1.297000047379751 	 23.193307430023495
1.3198576731622305 	 22.12047517265874
1.343118129351283 	 21.09620149317542
1.3667885152116366 	 20.118921535898235
1.3908760551216106 	 19.182979584056916
1.4153881007780535 	 18.29062811905876
1.4403321334401327 	 17.43667425931034
1.4657157662126727 	 16.621480324778474
1.4915467463697303 	 15.841991389200828
1.5178329577191212 	 15.097157339537073
1.5445824230086154 	 14.385253127419416
1.5718033063745427 	 13.704718774212141
1.5995039158335442 	 13.054205642872033
1.6276927058182438 	 12.432289221729333
1.6563782797576032 	 11.837661302986557
1.6855693927027524 	 11.269083518248278
1.7152749539990964 	 10.725337818123407
1.7455040300055151 	 10.205298644348408
1.7762658468614814 	 9.707872211646327
1.8075697933029502 	 9.232016509878326
1.8394254235278698 	 8.776746074794284
1.871842460112193 	 8.341108195139043
1.9048307969772822 	 7.924205260958229
1.9384005024096065 	 7.525172752871417
1.9725618221336572 	 7.143196040723708
2.007325182439021 	 6.777482400943831
