###############
#    GaPSE    #
############### 
#
# Power Spectrum Multipole computation from two input vectors.
#
# For this PS_multipole computation we set: 
# 	 multipole degree in consideration L = 2
# 	 algorithm chosen for the computation: :fftlog
# 	 #points used in Fourier transform N = 500
# computational time needed (in s) : 0.0005
# kwards passed to "print_PS_multipole": 
# 		ν = 1.5
# 		cut_first_n = 0
# 		cut_last_n = 0
# 		n_extrap_high = 0
# 		n_pad = 500
# 		n_extrap_low = 0
# 
# k [h_0/Mpc] 	 	  P [(Mpc/h_0)^3]
0.0004910814662072734 	 1128.3827154584553
0.0004997360197718276 	 1159.9495410964885
0.0005085430964971111 	 1192.1205805557227
0.0005175053843686327 	 1224.8940588777418
0.0005266256187434989 	 1258.2552782380715
0.0005359065831852691 	 1292.2023543641315
0.0005453511103135166 	 1326.7229883584632
0.0005549620826683663 	 1361.803199555838
0.0005647424335902696 	 1397.436027755743
0.0005746951481152776 	 1433.6022813708068
0.0005848232638861013 	 1470.2876893687587
0.000595129872079218 	 1507.4785334953297
0.0006056181183483241 	 1545.150336519974
0.0006162912037844131 	 1583.2886945959347
0.0006271523858927688 	 1621.8702998172212
0.0006382049795871844 	 1660.8704751833875
0.000649452358201695 	 1700.2699788401683
0.0006608979545201482 	 1740.0396020685887
0.0006725452618239119 	 1780.1543399247184
0.0006843978349580507 	 1820.5896562831326
0.0006964592914162942 	 1861.3127193693194
0.0007087333124451173 	 1902.2993631638897
0.0007212236441672908 	 1943.518689974804
0.00073393409872522 	 1984.9396597824982
0.0007468685554444416 	 2026.5365108924127
0.0007600309620176249 	 2068.2765631034727
0.0007734253357094322 	 2110.1320314850614
0.0007870557645826232 	 2152.076961345704
0.0008009264087457577 	 2194.080566187805
0.0008150415016228937 	 2236.1211460349396
0.0008294053512456623 	 2278.1736994175035
0.0008440223415681057 	 2320.2157512439258
0.0008588969338046992 	 2362.2317478237637
0.0008740336677919409 	 2404.203476434654
0.0008894371633739467 	 2446.1199487331864
0.0009051121218124637 	 2487.9749133111113
0.0009210633272217236 	 2529.7618106132086
0.0009372956480285984 	 2571.485155953532
0.0009538140384584721 	 2613.150502576772
0.0009706235400473153 	 2654.7694480473597
0.0009877292831803929 	 2696.363034778818
0.0010051364886580984 	 2737.9540274650412
0.0010228504692893848 	 2779.5749035278463
0.0010408766315132662 	 2821.265512595058
0.0010592204770489113 	 2863.0688877152843
0.0010778876045748017 	 2905.040100768936
0.0010968837114374943 	 2947.2376133460098
0.0011162145953904962 	 2989.7269796786004
0.0011358861563637752 	 3032.5828198738027
0.0011559043982644714 	 3075.881889466714
0.001176275430809327 	 3119.7087708624067
0.0011970054713894187 	 3164.152905615616
0.0012181008469677585 	 3209.304274338943
0.001239567996010319 	 3255.2594097382116
0.0012614134704511126 	 3302.1131088193733
0.0012836439376918808 	 3349.960307137491
0.0013062661826370406 	 3398.896251335217
0.0013292871097644885 	 3449.0096309557653
0.0013527137452328934 	 3500.3859546438994
0.0013765532390261398 	 3553.1038328273585
0.0014008128671355485 	 3607.2304701805583
0.0014255000337805718 	 3662.8255696886104
0.0014506222736686085 	 3719.933830374092
0.0014761872542946553 	 3778.5861153644732
0.00150220277828149 	 3838.79934865769
0.0015286767857610782 	 3900.5712361713177
0.0015556173567979736 	 3963.8837039614364
0.0015830327138554028 	 4028.7009541632783
0.0016109312243048274 	 4094.9675481996683
0.0016393214029797327 	 4162.613741336195
0.0016682119147744077 	 4231.552092766564
0.001697611577288547 	 4301.681757994182
0.0017275293635184387 	 4372.892057789962
0.0017579744045955932 	 4445.062389225815
0.001788955992573638 	 4518.069491662599
0.0018204835832643096 	 4591.7904400406005
0.0018525667991234527 	 4666.105786964473
0.0018852154321878523 	 4740.908300426973
0.0019184394470638415 	 4816.104188753048
0.0019522489839685798 	 4891.619971984988
0.0019866543618249095 	 4967.407678537985
0.0020216660814107836 	 5043.445966863401
0.002057294828564165 	 5119.745724187719
0.0020935514774444424 	 5196.350461557534
0.0021304470938512876 	 5273.335090244146
0.0021679929386020265 	 5350.8072504202355
0.0022062004709685343 	 5428.900654110479
0.0022450813521746717 	 5507.771338693432
0.002284647448955397 	 5587.590997106628
0.002324910837178566 	 5668.5360747107325
0.002365883805530584 	 5750.780051807604
0.0024075788592670113 	 5834.481777091892
0.0024500087240292437 	 5919.773731282791
0.0024931863497284932 	 6006.754398031552
0.002537124914498179 	 6095.477201016737
0.0025818378287160012 	 6185.945776958853
0.0026273387390968943 	 6278.1114455061825
0.00267364153285809 	 6371.8724473072925
0.002720760341957619 	 6467.081003150461
0.0027687095474074703 	 6563.552089100707
0.0028175037836627955 	 6661.076337973228
0.0028671579430884575 	 6759.4389864529085
0.0029176871805042743 	 6858.436924552151
0.002969106917810405 	 6957.8994754885025
0.003021432848694205 	 7057.706847725766
0.003074680943420082 	 7157.803370454
0.0031288674537037174 	 7258.207928065115
0.0031840089176722194 	 7359.014812086052
0.0032401221649116943 	 7460.386101252878
0.0032972243216037368 	 7562.537391970745
0.003355332815752498 	 7665.71231608418
0.0034144653825038157 	 7770.153796393396
0.0034746400695581238 	 7876.0718796919455
0.0035358752426787577 	 7983.611758335584
0.0035981895912972953 	 8092.830181449974
0.00366160213421774 	 8203.680656379185
0.003726132225421178 	 8316.01284252163
0.0037917995599727654 	 8429.589591349311
0.0038586241800328235 	 8544.11674373195
0.003926626480973827 	 8659.287116569805
0.0039958272176052545 	 8774.829860568581
0.004066247510508087 	 8890.556627958409
0.004137908852480971 	 9006.398286675543
0.004210833115100006 	 9122.42052469347
0.004285042555394069 	 9238.814129040713
0.004360559822637869 	 9355.859921966892
0.00443740796526464 	 9473.869243086057
0.004515610437900723 	 9593.11393156337
0.004595191108524072 	 9713.758258157726
0.00467617426574894 	 9835.809014628823
0.00475858462623897 	 9959.10052088483
0.004842447342250868 	 10083.320151764909
0.004927788009311095 	 10208.074036788403
0.005014632674027784 	 10332.981041235984
0.005103007842040369 	 10457.769492291318
0.005192940486109323 	 10582.351848629824
0.005284458054348406 	 10706.850334354767
0.0053775884786020755 	 10831.559254174594
0.005472360182970466 	 10956.849932284513
0.0055688020924846374 	 11083.040710479361
0.0056669436419347395 	 11210.273297910444
0.005766814784853684 	 11338.440914638255
0.005868446002659232 	 11467.198978150833
0.005971868313957111 	 11596.066681148242
0.006077113284008147 	 11724.589445817544
0.006184213034362222 	 11852.503526695018
0.006293200252661983 	 11979.83525704928
0.006404108202619396 	 12106.882348358455
0.006516970734168029 	 12234.07193882406
0.006631822293794356 	 12361.746852015594
0.006748697935051041 	 12489.972324561042
0.006867633329255554 	 12618.463066500986
0.00698866477637735 	 12746.681677726116
0.007111829216116842 	 12874.076575305771
0.007237164239179729 	 13000.346970341649
0.007364708098749906 	 13125.587141981987
0.0074944997221646475 	 13250.211726389089
0.00762657872279554 	 13374.681709618822
0.00776098541213873 	 13499.177487389605
0.007897760812118352 	 13623.424582993033
0.008036946667606666 	 13746.805610644116
0.008178585459164939 	 13868.714347864323
0.008322720416008844 	 13988.929155809186
0.008469395529202286 	 14107.733054310445
0.008618655565083866 	 14225.660372128921
0.00877054607892985 	 14343.026203004905
0.008925113428857991 	 14459.593799354781
0.009082404789976416 	 14574.673771168425
0.00924246816878174 	 14687.618312772045
0.0094053524178111 	 14798.314034217237
0.00957110725055223 	 14907.22110712085
0.009739783256616426 	 15014.871095400124
0.009911431917178902 	 15121.255362712109
0.010086105620691156 	 15225.71052790191
0.010263857678870397 	 15327.473728905165
0.010444742342970603 	 15426.382491013119
0.010628814820340483 	 15522.959162309506
0.010816131291273106 	 15617.717234911473
0.011006748926152568 	 15710.42720411862
0.011200725902902858 	 15800.230991456883
0.01139812142474412 	 15886.548083722177
0.011598995738262001 	 15969.683582416099
0.011803410151795285 	 16050.297811572591
0.012011427054147678 	 16128.351410371333
0.012223109933629388 	 16202.968331864533
0.01243852339743414 	 16273.504089180025
0.01265773319135786 	 16340.333186699047
0.012880806219864711 	 16404.11313432379
0.01310781056650687 	 16464.551853715275
0.013338815514704165 	 16520.65280851149
0.01357389156888981 	 16572.159068781268
0.013813110476028984 	 16619.79866259507
0.01405654524751645 	 16663.792678834972
0.014304270181460214 	 16703.20843737362
0.014556360885357908 	 16737.450257498724
0.014812894299172655 	 16767.17886771322
0.015073948718815853 	 16792.7802474199
0.015339603820043525 	 16813.32516840658
0.015609940682774104 	 16828.240684846194
0.0158850418158345 	 16838.292331955257
0.01616499118214247 	 16843.664043812438
0.016449874224332764 	 16843.278209355114
0.01673977789083475 	 16837.028081717857
0.017034790662409843 	 16825.79425657148
0.0173350025791564 	 16809.057083924065
0.01764050526799064 	 16785.948853284495
0.01795139197061197 	 16757.239276582062
0.018267757571960863 	 16723.09959844344
0.018589698629178638 	 16682.44380247318
0.01891731340107728 	 16635.700628881903
0.019250701878128804 	 16583.435821761126
0.019589965812983168 	 16524.581690504525
0.019935208751523794 	 16459.421844203476
0.020286536064470707 	 16388.639192076625
0.020644054979540326 	 16311.14462976413
0.021007874614172216 	 16227.441632408589
0.021378106008832616 	 16137.998528076103
0.021754862160904654 	 16041.76010215006
0.022138258059176196 	 15939.740747805143
0.022528410718935066 	 15831.668711283859
0.022925439217683186 	 15717.167158856462
0.023329464731479763 	 15597.232058785896
0.023740610571925183 	 15471.012167673876
0.024159002223796702 	 15339.252500505338
0.024584767383347174 	 15201.914673204867
0.0250180359972791 	 15058.901798981184
0.025458940302405142 	 14910.875987898118
0.02590761486600788 	 14757.457843538132
0.0263641966269108 	 14599.334255549888
0.026828824937272896 	 14436.406528617737
0.027301641605120164 	 14269.039383409265
0.027782790937626322 	 14097.531902533936
0.028272419785156475 	 13922.004394556116
0.028770677586087045 	 13742.946116277019
0.029277716412415302 	 13560.490286674056
0.029793691016173057 	 13375.070321944946
0.030318758876657952 	 13186.992607490432
0.030853080248497467 	 12996.596719748171
0.03139681821055976 	 12804.274246364772
0.03195013871572655 	 12610.406343611128
0.03251321064154318 	 12415.338897436426
0.033086205841761335 	 12219.541180881748
0.03366929919879005 	 12023.360361443629
0.03426266867707114 	 11827.21986826136
0.03486649537739527 	 11631.57393748406
0.03548096359217531 	 11436.75702082758
0.03610626086169365 	 11243.263259344492
0.036742578031341004 	 11051.456727258803
0.0373901093098638 	 10861.724490918623
0.038049052328638124 	 10674.516064822792
0.038719608201988345 	 10490.139962347595
0.03940198158856859 	 10309.005266468039
0.04009638075382624 	 10131.454597456124
0.04080301763356601 	 9957.770990114299
0.04152210789863435 	 9788.320347611887
0.042253871020743815 	 9623.314866625755
0.042998530339457414 	 9463.014087928532
0.04375631313035358 	 9307.646827344279
0.04452745067439236 	 9157.339186507093
0.04531217832850405 	 9012.273598032707
0.04611073559742191 	 8872.50179241279
0.046923366206780816 	 8738.065158985377
0.04775031817750407 	 8608.990543131635
0.04859184390150131 	 8485.184308842334
0.04944820021870039 	 8366.563687155674
0.05031964849543682 	 8252.956558694892
0.05120645470422477 	 8144.1383990611575
0.05210888950493371 	 8039.852078909949
0.053027228327396064 	 7939.7361177267085
0.05396175145547025 	 7843.425639572362
0.05491274411258552 	 7750.456628005536
0.055880496548794185 	 7660.330977891846
0.056865304129358224 	 7572.496454598421
0.05786746742489677 	 7486.346448942923
0.05888729230312271 	 7401.250714165298
0.05992509002219568 	 7316.509087056027
0.060981177325720407 	 7231.451467391965
0.062055876539419234 	 7145.32154478016
0.06314951566950823 	 7057.417962007054
0.0642624285028073 	 6967.031287192067
0.0653949547086143 	 6873.462268191827
0.06654743994237469 	 6776.086792934195
0.0677202359511781 	 6674.305280493943
0.06891370068111427 	 6567.624863987091
0.07012819838652065 	 6455.632891561852
0.07136409974115585 	 6338.033842599663
0.07262178195133179 	 6214.667658742195
0.07390162887103997 	 6085.510575058387
0.07520403111910663 	 5950.693818197683
0.0765293861984123 	 5810.522741380943
0.07787809861721298 	 5665.439200578224
0.07925058001259883 	 5516.087078786547
0.08064724927612894 	 5363.2181411326355
0.08206853268168023 	 5207.766324698997
0.08351486401554935 	 5050.760933138465
0.08498668470884738 	 4893.329782086618
0.0864844439722282 	 4736.696012878383
0.08800859893299065 	 4582.064982067084
0.08955961477459733 	 4430.714696295011
0.09113796487865204 	 4283.811688084851
0.09274413096937925 	 4142.515585704899
0.09437860326065022 	 4007.8411445543115
0.09604188060559958 	 3880.66610469943
0.09773447064887934 	 3761.736280637615
0.09945688998159559 	 3651.534121054309
0.10120966429897614 	 3550.4158746752405
0.10299332856081637 	 3458.419451970458
0.10480842715475326 	 3375.4066923416294
0.10665551406241637 	 3300.968568249254
0.10853515302850722 	 3234.421863480248
0.1104479177328584 	 3174.9300689585493
0.11239439196552477 	 3121.3115043651565
0.11437516980496076 	 3072.32585377865
0.11639085579933747 	 3026.4744535221575
0.11844206515105525 	 2982.193119404473
0.12052942390450806 	 2937.9210819890977
0.12265356913715701 	 2892.0166186754545
0.12481514915397077 	 2843.1102710161636
0.12701482368529363 	 2789.8916117979534
0.1292532640881998 	 2731.432972918726
0.13153115355139652 	 2667.162968346741
0.13384918730373874 	 2596.853623796434
0.13620807282641756 	 2520.8572518655424
0.1386085300688893 	 2439.838029897787
0.14105129166860922 	 2354.946320128019
0.14353710317463797 	 2267.6761731834254
0.14606672327518863 	 2179.663627040166
0.14864092402918422 	 2092.782295088787
0.15126049110189554 	 2008.7782079892388
0.15392622400473238 	 1929.2730294989701
0.1566389363392602 	 1855.6836979430052
0.15939945604551747 	 1788.9366826928429
0.1622086256547091 	 1729.6565786292683
0.16506730254635302 	 1677.9249475066074
0.16797635920995937 	 1633.3065543069154
0.1709366835113203 	 1595.0539776038886
0.17394917896349343 	 1561.8036065393953
0.17701476500256075 	 1532.0723700581516
0.1801343772682475 	 1504.10105259836
0.18330896788948592 	 1476.0177527686203
0.18653950577501272 	 1446.3164834941201
0.18982697690908695 	 1413.5251214372795
0.19317238465241976 	 1376.8701771017156
0.19657675004840763 	 1336.086293556694
0.20004111213476217 	 1291.418567248321
0.20356652826063265 	 1243.9142022237872
0.20715407440931652 	 1194.825810836887
0.2108048455266576 	 1145.7805011229043
0.21451995585523176 	 1098.5068695163482
0.2183005392744221 	 1054.290393998215
0.22214774964648706 	 1014.3608676240701
0.2260627611687284 	 979.2115619365474
0.23004676873186444 	 948.7694975833435
0.23410098828471992 	 922.6081828373642
0.23822665720534264 	 899.5556188787417
0.24242503467866 	 878.3731309193881
0.24669740208079236 	 857.6405286300796
0.2510450633701381 	 836.02741422741
0.25546934548535166 	 812.6813925881115
0.25997159875033504 	 787.205859707925
0.2645531972863668 	 759.7064995480969
0.2692155394314936 	 731.0081660584145
0.2739600481673145 	 702.0382946785969
0.2787881715532846 	 673.9497932682086
0.2837013831686738 	 647.8510113436347
0.28870118256231475 	 624.1873648251058
0.293789095710275 	 603.2860330861181
0.29896667548159805 	 584.7560454987196
0.30423550211224926 	 567.8775687340898
0.3095971836874161 	 551.8331060112364
0.31505335663230766 	 535.7275148964856
0.3206056862116039 	 518.9537532670545
0.326255867037707 	 501.34586689206816
0.3320056235879492 	 483.0911436361857
0.3378567107309167 	 464.669419107865
0.3438109142620487 	 446.84928389529057
0.34987005144867434 	 430.04899711173584
0.35603597158465805 	 414.6850194830266
0.3623105565548163 	 400.69947616154207
0.36869572140928375 	 387.71743870432215
0.37519341494800046 	 375.36195885378294
0.38180562031550025 	 363.07098651429646
0.3885343556061812 	 350.65247902533406
0.39538167448024336 	 338.0341682375615
0.40234966679048056 	 325.47031769324207
0.4094404592201198 	 313.2615749418379
0.4166562159319003 	 301.670974549295
0.4239991392285921 	 290.8798801955759
0.43147147022515603 	 280.7261251576267
0.43907548953274755 	 271.08779813161317
0.44681351795477725 	 261.6902274714923
0.4546879171952371 	 252.36532903440215
0.4627010905795096 	 243.16605771603196
0.4708554837878815 	 234.12640753828254
0.47915358560198307 	 225.4250582296827
0.48759792866438273 	 217.16592043240504
0.496191090251569 	 209.2964518346567
0.5049356930605542 	 201.78301546631138
0.5138344060093407 	 194.50387122619185
0.5228899450514957 	 187.36923344780027
0.532105074005079 	 180.42883704497228
0.5414826053961826 	 173.6966729196468
0.5510254013173335 	 167.21638568573178
0.5607363743010254 	 161.0343382526989
0.5706184882086469 	 155.08784203484117
0.5806747591350724 	 149.33695944108115
0.5909082563291974 	 143.77303137277224
0.6013221031306967 	 138.37441734753884
0.6119194779232904 	 133.158990509899
0.62270361510481 	 128.1506047618717
0.6336778060743615 	 123.33361923001367
0.6448454002368845 	 118.68497968633615
0.6562098060254159 	 114.19918361650844
0.6677744919413683 	 109.86856678905015
0.6795429876131437 	 105.68810555595488
0.6915188848734013 	 101.66140815907579
0.7037058388553125 	 97.78592528018119
0.716107569108134 	 94.05200938838246
0.7287278607324426 	 90.44913756143896
0.7415705655353763 	 86.9754260978198
0.754639603206233 	 83.6293681561176
0.7679389625127917 	 80.40711786336796
0.7814727025187111 	 77.30269081992029
0.7952449538223885 	 74.3102654912385
0.8092599198176481 	 71.42838030042016
0.8235218779766481 	 68.65239977679619
0.8380351811553974 	 65.97966034946758
0.8528042589222805 	 63.405823139333116
0.8678336189099926 	 60.92642865877916
0.8831278481913052 	 58.539939042531984
0.8986916146790739 	 56.24208230087258
0.914529668550919 	 54.0303088402237
0.9306468436990178 	 51.901582811318534
0.947048059205442 	 49.85180648035915
0.9637383208434996 	 47.87976787523541
0.9807227226055342 	 45.981233460948886
0.9980064482576492 	 44.1542512441862
1.0155947729218313 	 42.39684100227391
1.0334930646859581 	 40.70436528786762
1.0517067862421785 	 39.077724508873985
1.070241496554166 	 37.51037216358067
1.0891028525537567 	 36.00523283160549
1.1082966108674877 	 34.55465764541162
1.127828629573561 	 33.16184914910199
1.1477048699897734 	 31.820485843475527
1.1679313984929556 	 30.529989813621505
1.1885143883704752 	 29.291633743963608
1.2094601217043695 	 28.010233924151713
1.230774991288685 	 26.716673441854528
1.2524655025806049 	 25.49079223194404
1.2745382756859631 	 24.313940835727593
1.297000047379751 	 23.193307430023513
1.3198576731622305 	 22.120475172658725
1.343118129351283 	 21.096201493175407
1.3667885152116366 	 20.118921535898256
1.3908760551216106 	 19.182979584056927
1.4153881007780535 	 18.2906281190588
1.4403321334401327 	 17.43667425931035
1.4657157662126727 	 16.62148032477846
1.4915467463697303 	 15.84199138920084
1.5178329577191212 	 15.097157339537072
1.5445824230086154 	 14.385253127419421
1.5718033063745427 	 13.704718774212143
1.5995039158335442 	 13.054205642872
1.6276927058182438 	 12.432289221729336
1.6563782797576032 	 11.837661302986595
1.6855693927027524 	 11.269083518248301
1.7152749539990964 	 10.725337818123434
1.7455040300055151 	 10.205298644348426
1.7762658468614814 	 9.707872211646318
1.8075697933029502 	 9.232016509878306
1.8394254235278698 	 8.776746074794282
1.871842460112193 	 8.341108195139073
1.9048307969772822 	 7.924205260958229
1.9384005024096065 	 7.525172752871404
1.9725618221336572 	 7.1431960407237005
2.007325182439021 	 6.7774824009438115
2.042701193362561 	 6.4273000185101905
2.0787006519266784 	 6.091920071636
2.115334545434644 	 5.770685217222535
2.1526140548240056 	 5.462930334410558
2.1905505580790945 	 5.168060917364381
2.2291556337036695 	 4.885473464313101
2.2684410642547648 	 4.614630676814972
2.3084188399388106 	 4.354985691078693
2.3491011622711375 	 4.106053819985957
2.3905004477999676 	 3.8673412947249033
2.4326293318960395 	 3.6384099550464364
2.4755006726090145 	 3.4188182490628543
2.5191275545918534 	 3.2081684968694013
2.5635232930943466 	 3.0060688066641355
2.60870143802703 	 2.8121589972945724
2.6546757780967174 	 2.626092491446584
2.701460345014918 	 2.4475452523445727
2.749069417780417 	 2.276211588584184
2.797517527037336 	 2.111802057924589
2.84681945950999 	 1.95404875586868
2.896990262515911 	 1.802694674769856
2.9480452485583957 	 1.6575068003296758
3.0 	 1.518259158305691
