###############
#    GaPSE    #
############### 
#
# Power Spectrum Multipole computation from two input vectors.
#
# For this PS_multipole computation we set: 
# 	 multipole degree in consideration L = 0
# 	 algorithm chosen for the computation: :fftlog
# 	 #points used in Fourier transform N = 500
# computational time needed (in s) : 0.0549
# kwards passed to "print_PS_multipole": 
# 		ν = 1.5
# 		cut_first_n = 0
# 		cut_last_n = 0
# 		n_extrap_high = 300
# 		n_pad = 500
# 		n_extrap_low = 300
# 
# k [h_0/Mpc] 	 	  P [(Mpc/h_0)^3]
0.00016369382206909115 	 3311.1108285335918
0.00016657867325727587 	 3252.386316726462
0.00016951436549903702 	 3193.4702178261027
0.00017250179478954422 	 3135.9471550731955
0.0001755418729144996 	 3079.6236348642265
0.00017863552772842304 	 3023.9099521725802
0.00018178370343783885 	 2969.688390671032
0.00018498736088945543 	 2915.9432660125385
0.0001882474778634232 	 2863.626788324434
0.00019156504937175922 	 2811.847972024681
0.00019494108796203375 	 2761.3321058376955
0.000198376624026406 	 2711.462663386212
0.00020187270611610804 	 2662.689735200554
0.00020543040126147103 	 2614.641160557855
0.00020905079529758957 	 2567.5752095667467
0.00021273499319572815 	 2521.2588737260708
0.00021648411940056498 	 2475.855298443914
0.00022029931817338274 	 2431.2014221890427
0.00022418175394130397 	 2387.40351387473
0.00022813261165268356 	 2344.351877821173
0.00023215309713876472 	 2302.1047064419595
0.0002362444374817058 	 2260.5937217016144
0.00024040788138909695 	 2219.847620546438
0.00024464469957507335 	 2179.817425122824
0.0002489561851481472 	 2140.5218006631844
0.00025334365400587496 	 2101.9189570958065
0.0002578084452364774 	 2064.0212971709984
0.00026235192152754104 	 2026.795930192839
0.0002669754695819192 	 1990.2461600939348
0.0002716805005409646 	 1954.3483464601072
0.0002764684504152208 	 1919.0998801764204
0.0002813407805227019 	 1884.4808766070496
0.0002862989779348997 	 1850.4880961562958
0.00029134455593064697 	 1817.1023216473966
0.0002964790544579822 	 1784.319912997558
0.00030170404060415456 	 1752.1239896253085
0.0003070211090739079 	 1720.5085411024936
0.00031243188267619944 	 1689.4598220046544
0.00031793801281949067 	 1658.9702528074574
0.00032354118001577176 	 1629.0272808010864
0.0003292430943934643 	 1599.6237376877873
0.0003350454962193661 	 1570.747114690064
0.0003409501564297949 	 1542.3905931006361
0.00034695887717108877 	 1514.5425861953513
0.0003530734923496371 	 1487.195593755573
0.0003592958681916006 	 1460.3394397933291
0.0003656279038124981 	 1433.966194444896
0.000372071531796832 	 1408.0662646370822
0.00037862871878792506 	 1382.6321666557574
0.00038530146608815717 	 1357.6543663200835
0.00039209181026977566 	 1333.125774299215
0.00039900182379647294 	 1309.0373559431853
0.0004060336156559195 	 1285.381878368454
0.0004131893320034396 	 1262.1510791414628
0.0004204711568170375 	 1239.3376671038568
0.0004278813125639603 	 1216.9337592697989
0.0004354220608790135 	 1194.9324311308683
0.0004430957032548295 	 1173.3259106419584
0.00045090458174429777 	 1152.107611752082
0.00045885107967538 	 1131.2700973866665
0.0004669376223785162 	 1110.806829614241
0.0004751666779268573 	 1090.7108583513414
0.00048354075788953615 	 1070.9757206636045
0.0004920624180982184 	 1051.594752961194
0.0005007342594271633 	 1032.561785939619
0.0005095589285870261 	 1013.8702940163995
0.0005185391189326578 	 995.5143870088418
0.0005276775712851343 	 977.4877934714066
0.0005369770747682758 	 959.7847394478547
0.0005464404676599109 	 942.3992935323475
0.0005560706382581359 	 925.3258031114062
0.000565870525762849 	 908.5585684918626
0.0005758431211728129 	 892.0921754065303
0.0005859914681985311 	 875.9210690013364
0.0005963186641912126 	 860.0400655512938
0.0006068278610881032 	 844.4438160585156
0.0006175222663744842 	 829.1272724612782
0.0006284051440626175 	 814.0853407516489
0.0006394798156879472 	 799.3131056320258
0.0006507496613228599 	 784.8056666587714
0.0006622181206083031 	 770.5583055500229
0.0006738886938035944 	 756.566262238194
0.0006857649428547217 	 742.8250107664408
0.0006978504924814808 	 729.3299635804207
0.0007101490312837625 	 716.0767297942666
0.0007226643128673422 	 703.0609226241023
0.0007354001569895114 	 690.2782807597595
0.0007483604507248906 	 677.7245817785993
0.000761549149651799 	 665.3957297243427
0.000774970279059522 	 653.2876326617715
0.0007886279351768615 	 641.3963567033514
0.000802526286422337 	 629.7179570613996
0.0008166695746764145 	 618.2486261571222
0.0008310621165761644 	 606.9845825010564
0.0008457083048327263 	 595.9221388594162
0.0008606126095720004 	 585.057654486895
0.0008757795796989649 	 574.3875824125679
0.00089121384428603 	 563.9084002402402
0.0009069201139858729 	 553.6166985742406
0.0009229031824691568 	 543.5090815586569
0.0009391679278875985 	 533.5822542224668
0.0009557193143628191 	 523.8329562197182
0.0009725623935014248 	 514.2580013296136
0.0009897023059368016 	 504.8542500559297
0.0010071442828980682 	 495.61863575964225
0.001024893647806694 	 486.5481243983418
0.001042955817901239 	 477.63976643260514
0.0010613363058907398 	 468.8906367345523
0.0010800407216372313 	 460.29788727183933
0.0010990747738679123 	 451.8587064480834
0.0011184442719174993 	 443.57034256250404
0.0011381551275012718 	 435.43008750229853
0.0011582133565193745 	 427.43529141681813
0.001178625080892919 	 419.5833386671195
0.0011993965304324318 	 411.8716788350753
0.0012205340447392467 	 404.29778958024235
0.0012420440751403927 	 396.8592090072213
0.0012639331866575885 	 389.55351008371156
0.0012862080600109412 	 382.37831485791634
0.0013088754936579424 	 375.3312844257775
0.0013319424058684183 	 368.4101272689331
0.0013554158368360289 	 361.6125845613815
0.0013793029508269905 	 354.9364489842384
0.0014036110383666687 	 348.3795413354234
0.0014283475184646893 	 341.9397307610974
0.0014535199408792897 	 335.6149183499694
0.0014791359884215466 	 329.40304594432155
0.001505203479300241 	 323.30208983314975
0.001531730369508024 	 317.310065580877
0.0015587247552496467 	 311.42501892792615
0.0015861948754129901 	 305.6450374150982
0.0016141491140836226 	 299.9682354709278
0.0016425960031036984 	 294.39276730244495
0.0016715442246759279 	 288.91681624834547
0.0017010026140134565 	 283.5386003898171
0.0017309801620364411 	 278.25636854019734
0.0017614860181161352 	 273.0684031070651
0.0017925294928673584 	 267.97301439173225
0.0018241200609901552 	 262.9685478689713
0.0018562673641615457 	 258.0533745376913
0.0018889812139782467 	 253.22589921297552
0.001922271594951228 	 248.48455345917628
0.001956148667553077 	 243.82779914266374
0.0019906227713190373 	 239.2541257256816
0.0020257044280027154 	 234.7620518513237
0.002061404344787407 	 230.35012156988577
0.0020977334175539945 	 226.01690877346374
0.002134702734206465 	 221.76101068660432
0.0021723235780560096 	 217.5810530630547
0.0022106074312647855 	 213.47568523293936
0.002249565978350347 	 209.44358218822734
0.002289211109751851 	 205.48344254634372
0.0023295549254591166 	 201.59398926109247
0.002370609738705614 	 197.77396697382946
0.002412388079726576 	 194.0221446546613
0.002454902699583302 	 190.33731114734707
0.002498166574054882 	 186.71827849162216
0.0025421929075985132 	 183.16387852590765
0.002586995137379577 	 179.67296427241848
0.0026325869373727837 	 176.24440862371677
0.0026789822225355554 	 172.87710486066473
0.0027261951530549795 	 169.56996507314994
0.0027742401386696147 	 166.32192203525184
0.002823131843067429 	 163.13192642677097
0.0028728851883612887 	 159.99894923531002
0.002923515359643283 	 156.92197960476855
0.00297503780961933 	 153.90002588320166
0.003027468263325472 	 150.9321147769476
0.003080822722927247 	 148.01729162703072
0.0031351174726037003 	 145.15461924671527
0.00319036908351741 	 142.34317892222825
0.0032465944188721425 	 139.5820682443828
0.003303810639059634 	 136.8704023589296
0.003362035206897052 	 134.2073120854095
0.003421285892956799 	 131.59194422890207
0.003481580780990201 	 129.02346063302
0.003542938273446828 	 126.50103805726052
0.0036053770970910356 	 124.0238672296054
0.0036689163087175224 	 121.59115345290013
0.0037335753009676196 	 119.20211523391231
0.00379937380824804 	 116.85598535603773
0.0038663319127540006 	 114.55200990267697
0.003934470050598428 	 112.28944884411597
0.004003809018049226 	 110.0675757361682
0.004074369977876463 	 107.8856778934389
0.00414617446581138 	 105.74305588413715
0.004219244397119287 	 103.63902387329787
0.004293602073288237 	 101.57290844531299
0.004369270188835623 	 99.54404892305641
0.004446271838234722 	 97.55179616091934
0.00452463052296327 	 95.59551240332645
0.004604370158676328 	 93.67457059750136
0.004685515082505484 	 91.78835420180549
0.004768090060486738 	 89.9362567834971
0.004852120295119302 	 88.11768243794921
0.004937631433057552 	 86.33204540232367
0.0050246495729386175 	 84.57877082511023
0.005113201273347841 	 82.85729447209826
0.005203313560924701 	 81.16706303342555
0.0052950139386115005 	 79.50753377790502
0.00538833039404749 	 77.87817423010723
0.005483291408110921 	 76.27846142336983
0.005579925963611583 	 74.70788153281147
0.005678263554136614 	 73.16592896773795
0.005778334193052133 	 71.6521064501248
0.005880168422663547 	 70.1659246746067
0.005983797323537324 	 68.70690275438253
0.0060892525239869535 	 67.27456847314552
0.006196566209726213 	 65.8684586320943
0.006305771133692427 	 64.48811895880165
0.006416900626042935 	 63.13310394016061
0.006529988604327723 	 61.802975910248705
0.006645069583841265 	 60.49730454993553
0.006762178688156903 	 59.21566605088482
0.006881351659846776 	 57.957643053847555
0.007002624871390739 	 56.7228248229216
0.007126035336277538 	 55.51080784870668
0.007251620720301552 	 54.32119630812123
0.007379419353058732 	 53.153602334230996
0.0075094702396450224 	 52.00764543318821
0.007641813072561061 	 50.882951833798955
0.007776488243826588 	 49.77915345508079
0.007913536857308395 	 48.69588758066651
0.008053000741265567 	 47.632797037291155
0.008194922461115724 	 46.58953095170542
0.008339345332426366 	 45.56574537900384
0.008486313434135048 	 44.5611034409554
0.008635871622002626 	 43.57527447069256
0.0087880655423036 	 42.607933017604765
0.00894294164575763 	 41.65875797330043
0.009100547201706721 	 40.72743282502974
0.009260930312542107 	 39.81364656873144
0.009424139928385492 	 38.91709464512355
0.009590225862029015 	 38.03747889534369
0.009759238804138433 	 37.1745065368748
0.009931230338724352 	 36.32788880554222
0.010106252958885984 	 35.497340725789904
0.01028436008283249 	 34.68258199091099
0.010465606070186586 	 33.88333830062596
0.010650046238575517 	 33.09934147214049
0.010837736880514395 	 32.33032811171292
0.011028735280587112 	 31.576038065528113
0.011223099732930016 	 30.836214442373368
0.011420889559023713 	 30.11060516101437
0.011622165125798424 	 29.398964294838795
0.011826987864058438 	 28.701051207395377
0.012035420287231216 	 28.01662849865495
0.012247526010447003 	 27.345461252420574
0.012463369769954599 	 26.68731881553088
0.012683017442879375 	 26.04197666122726
0.012906536067329447 	 25.40921550738969
0.013133993862856196 	 24.78881861851254
0.013365460251275413 	 24.18057134737297
0.013601005877855336 	 23.584263717469977
0.013840702632878116 	 22.999692070844542
0.014084623673581272 	 22.426656675290285
0.014332843446485805 	 21.864959145933522
0.01458543771011786 	 21.314404267242274
0.014842483558130786 	 20.77480320374167
0.015104059442834683 	 20.245971967030318
0.015370245199140637 	 19.727727590378876
0.015641122068926937 	 19.219889433308335
0.015916772725834687 	 18.72228342970754
0.016197281300500434 	 18.234740345671366
0.016482733406233463 	 17.757091330342316
0.016773216165145606 	 17.28917036999519
0.01706881823474159 	 16.830818479439824
0.017369629834977904 	 16.38187981539918
0.017675742775798687 	 15.942198388876855
0.017987250485156748 	 15.511623641560544
0.018304248037528503 	 15.090011179431833
0.018626832182931395 	 14.677216039645806
0.01895510137645274 	 14.273096408362587
0.019289155808298923 	 13.877518391170014
0.019629097434374236 	 13.490347623112772
0.019975030007398562 	 13.111450552770293
0.020327059108573468 	 12.740703295175507
0.02068529217980641 	 12.377982168124628
0.02104983855650274 	 12.023161936254262
0.021420809500935768 	 11.67612832765034
0.021798318236204768 	 11.336766333510795
0.022182479980791564 	 11.004958779849774
0.022573411983726033 	 10.680602912779754
0.022971233560371423 	 10.363589411250711
0.023376066128840217 	 10.053809978975218
0.023788033247051952 	 9.751173366301614
0.02420726065044393 	 9.455571381835592
0.02463387629034666 	 9.166910600127066
0.02506801037303554 	 8.885103789666939
0.025509795399470767 	 8.61004559300403
0.02595936620573766 	 8.341661002868571
0.02641686000419961 	 8.079855372722259
0.026882416425376313 	 7.824539200812273
0.027356177560560076 	 7.575641950029223
0.027838288005183117 	 7.333065566916012
0.028328894902949125 	 7.096740902715952
0.028828147990742733 	 6.866586856665878
0.029336199644330218 	 6.642517472825779
0.029853204924865775 	 6.4244678620600375
0.030379321626217346 	 6.2123515128143785
0.03091471032312642 	 6.0060964970467445
0.031459534420216734 	 5.805630197574352
0.032013960201866525 	 5.6108708913443746
0.03257815688295978 	 5.421749072100201
0.03315229666053186 	 5.2381871732325775
0.03373655476632538 	 5.060107769093238
0.03433110952027212 	 4.887436363715572
0.034936142384917754 	 4.720094225173912
0.03555183802080546 	 4.558001315127928
0.03617838434283574 	 4.401079151241823
0.03681597257761947 	 4.249244699783094
0.03746479732184159 	 4.1024117592626625
0.038125056601653586 	 3.960498113182258
0.03879695193311249 	 3.823410875765509
0.039480688383685084 	 3.6910603349845323
0.04017647463483602 	 3.5633539641106258
0.040884523045719004 	 3.44018934979879
0.041605049717990256 	 3.3214726520923903
0.04233827456176454 	 3.2070944714379728
0.04308442136273326 	 3.0969488021999547
0.04384371785046551 	 2.990929185400486
0.04461639576791292 	 2.888911350683332
0.04540269094213918 	 2.7907880290808325
0.04620284335629643 	 2.6964324206736294
0.04701709722286974 	 2.605713572942131
0.047845701058212654 	 2.5185155038283913
0.04868890775839621 	 2.4346942859911804
0.04954697467639474 	 2.3541202723490815
0.05042016370063185 	 2.2766600775926285
0.0513087413349108 	 2.2021638209665024
0.05221297877975341 	 2.130501068302398
0.053133152015172484 	 2.061523553926709
0.05406954188490303 	 1.9950864711847778
0.05502243418211768 	 1.9310514435708832
0.05599211973665313 	 1.869270816328552
0.05697889450377343 	 1.8096086194262775
0.057983059654497814 	 1.751920477222077
0.05900492166752025 	 1.6960742923005292
0.06004479242274916 	 1.6419417456071792
0.061102989296495304 	 1.5893848118837302
0.062179835258337576 	 1.5382947161595495
0.06327565896969566 	 1.488560390261136
0.06439079488413992 	 1.4400620774831547
0.06552558334946922 	 1.3927113894097334
0.06668037071158739 	 1.3464296039494066
0.06785550942021089 	 1.3011302336155222
0.06905135813643884 	 1.256747218722552
0.0702682818422192 	 1.2132387238081435
0.07150665195174392 	 1.1705583719302999
0.07276684642480737 	 1.1286707784733023
0.07404924988216235 	 1.0875703720838021
0.07535425372290946 	 1.0472539593131454
0.07668225624395482 	 1.0077227552355126
0.07803366276157331 	 0.968999041644563
0.07940888573511422 	 0.9311177197304316
0.08080834489288667 	 0.8941140434360473
0.08223246736026411 	 0.8580339953698873
0.08368168779004603 	 0.8229348439276771
0.08515644849511722 	 0.7888685452691611
0.086657199583445 	 0.7558951316456838
0.08818439909545558 	 0.7240783701067716
0.08973851314383122 	 0.6934687613658517
0.0913200160557715 	 0.6641128818872655
0.09292939051776153 	 0.6360594183989828
0.09456712772289128 	 0.6093450859594438
0.09623372752077157 	 0.5839841103953856
0.09792969857009166 	 0.5599788681903324
0.09965555849386602 	 0.5373290054903381
0.10141183403741642 	 0.5160134760690614
0.1031990612291387 	 0.4959822222625258
0.10501778554410254 	 0.47717493897816016
0.10686856207053463 	 0.4595239761152134
0.10875195567923565 	 0.4429419760882832
0.11066854119598307 	 0.42732162268131757
0.11261890357697225 	 0.41255355052398035
0.11460363808734955 	 0.3985236811920985
0.11662335048289144 	 0.38510675954761175
0.11867865719488602 	 0.37218708510889587
0.12077018551827211 	 0.3596579981187554
0.12289857380309457 	 0.3474105717229869
0.1250644716493335 	 0.3353527809365414
0.12726854010516675 	 0.3234207081490489
0.12951145186872706 	 0.3115693726734695
0.13179389149341447 	 0.29976364542391826
0.13411655559682686 	 0.28799138053884216
0.13648015307337324 	 0.27628220544946647
0.13888540531063343 	 0.2646765257492206
0.1413330464095307 	 0.25321961425403056
0.14382382340838534 	 0.24198700744967155
0.14635849651091584 	 0.23105947094653495
0.14893783931825907 	 0.22050993882886538
0.15156263906507902 	 0.2104198087354373
0.15423369685983654 	 0.20086395763467946
0.15695182792929382 	 0.1918849160744239
0.15971786186732767 	 0.18350678939437512
0.16253264288812758 	 0.1757474980986825
0.1653970300838563 	 0.16859484976023006
0.1683118976868514 	 0.16199999526802197
0.1712781353364469 	 0.1558976909788378
0.17429664835049855 	 0.1502164266183692
0.177368358001693 	 0.1448632277878218
0.18049420179872755 	 0.13974082852887285
0.18367513377244452 	 0.13477440395005705
0.1869121247670085 	 0.12988444488150538
0.19020616273621563 	 0.1250018567636178
0.19355825304502414 	 0.12010444031462238
0.19696941877639912 	 0.11519262367349661
0.20044070104356557 	 0.11027336529108939
0.20397315930776347 	 0.10538256572394734
0.20756787170160332 	 0.1005840795863491
0.2112259353581205 	 0.0959334753459294
0.21494846674562818 	 0.09148418618489522
0.21873660200847195 	 0.08730101183594652
0.22259149731378944 	 0.08341601173085265
0.22651432920438125 	 0.07982516308226104
0.23050629495780045 	 0.07652539060299882
0.2345686129517708 	 0.07349296229990149
0.23870252303604467 	 0.07066679321390223
0.2429092869108142 	 0.06798949092985573
0.24719018851179209 	 0.06541191818562381
0.2515465344020777 	 0.06287574078298315
0.25597965417093055 	 0.060348534643060975
0.2604909008395704 	 0.05782943979480723
0.26508165127412947 	 0.0553196429870853
0.2697533066058827 	 0.05283998550708232
0.2745072926588827 	 0.05043326315742336
0.27934506038513246 	 0.048130343558812023
0.28426808630742684 	 0.04595588246187014
0.2892778729699975 	 0.043937473126396995
0.2943759493971017 	 0.04207401397641309
0.2995638715596913 	 0.04033795638121278
0.30484322285030635 	 0.03870891049348764
0.3102156145663393 	 0.03715557475452827
0.315682686401814 	 0.035641335557170244
0.32124610694783323 	 0.034155194358875825
0.32690757420184474 	 0.03268999111000817
0.33266881608588306 	 0.031245755856779776
0.33853159097394375 	 0.029845636054864462
0.34449768822865273 	 0.028504814087006176
0.3505689287473928 	 0.027233963091578533
0.3567471655180553 	 0.02604654038523578
0.3630342841845856 	 0.024934952046937183
0.36943220362249585 	 0.02388558072997079
0.3759428765245203 	 0.022884997442729583
0.38256828999659115 	 0.02191619198942975
0.3893104661643186 	 0.020970321849351947
0.39617146279015836 	 0.020051068082513435
0.4031533739014565 	 0.01916108188123403
0.4102583304295616 	 0.018307177470872193
0.4174885008602016 	 0.017498732235950762
0.424846091895321 	 0.016732653254300782
0.43233334912658367 	 0.016008527462944074
0.4399525577207435 	 0.015319139534896643
0.44770604311709433 	 0.014655833287243068
0.4555961717372122 	 0.0140164965161096
0.4636253517072036 	 0.013398465528994694
0.4717960335926845 	 0.012804165823721621
0.4801107111467109 	 0.01223634545438342
0.4885719220708909 	 0.01169631888104921
0.4971822487899101 	 0.01118237364472712
0.5059443192397071 	 0.01069263759266328
0.5148608076695385 	 0.010223408571821671
0.5239344354581809 	 0.009772015977180318
0.5331679719445147 	 0.009339322208263704
0.5425642352727479 	 0.008924133383163136
0.5521260932525344 	 0.008527808655999527
