###############
#    GaPSE    #
############### 
#
# Power Spectrum Multipole computation from two input vectors.
#
# For this PS_multipole computation we set: 
# 	 multipole degree in consideration L = 2
# 	 algorithm chosen for the computation: :fftlog
# 	 #points used in Fourier transform N = 500
# computational time needed (in s) : 0.0005
# kwards passed to "print_PS_multipole": 
# 		ν = 1.5
# 		cut_first_n = 0
# 		cut_last_n = 0
# 		n_extrap_high = 0
# 		n_pad = 500
# 		n_extrap_low = 0
# 
# k [h_0/Mpc] 	 	  P [(Mpc/h_0)^3]
0.0004910814662072734 	 183.88083612015086
0.0004997360197718276 	 187.68412942297695
0.0005085430964971111 	 191.46480025459806
0.0005175053843686327 	 195.21448790313326
0.0005266256187434989 	 198.92437213408533
0.0005359065831852691 	 202.58510616576385
0.0005453511103135166 	 206.18687931830905
0.0005549620826683663 	 209.71938264966263
0.0005647424335902696 	 213.17182373737378
0.0005746951481152776 	 216.53295208951954
0.0005848232638861013 	 219.79106300136587
0.000595129872079218 	 222.93400937068205
0.0006056181183483241 	 225.94926816481313
0.0006162912037844131 	 228.82391314154884
0.0006271523858927688 	 231.54471388701964
0.0006382049795871844 	 234.09814379970595
0.000649452358201695 	 236.4704426542634
0.0006608979545201482 	 238.64769087863425
0.0006725452618239119 	 240.61586646788336
0.0006843978349580507 	 242.36091749475986
0.0006964592914162942 	 243.86888537758753
0.0007087333124451173 	 245.12594631750716
0.0007212236441672908 	 246.11857605312397
0.00073393409872522 	 246.83362841430215
0.0007468685554444416 	 247.25847231575085
0.0007600309620176249 	 247.38113964679476
0.0007734253357094322 	 247.19045728741148
0.0007870557645826232 	 246.6761981308492
0.0008009264087457577 	 245.829275316175
0.0008150415016228937 	 244.64185994433217
0.0008294053512456623 	 243.107613096986
0.0008440223415681057 	 241.22182823822442
0.0008588969338046992 	 238.98162658046095
0.0008740336677919409 	 236.38615199398362
0.0008894371633739467 	 233.436739453208
0.0009051121218124637 	 230.13709180764985
0.0009210633272217236 	 226.4934778119825
0.0009372956480285984 	 222.5148413711674
0.0009538140384584721 	 218.21299862242788
0.0009706235400473153 	 213.60272208790013
0.0009877292831803929 	 208.7018516082551
0.0010051364886580984 	 203.53137184888953
0.0010228504692893848 	 198.11543036656425
0.0010408766315132662 	 192.48133030110267
0.0010592204770489113 	 186.6595005201916
0.0010778876045748017 	 180.68334221870475
0.0010968837114374943 	 174.58911740342057
0.0011162145953904962 	 168.41568285952172
0.0011358861563637752 	 162.20421028749817
0.0011559043982644714 	 155.99782994861977
0.001176275430809327 	 149.84117731461654
0.0011970054713894187 	 143.77988277590242
0.0012181008469677585 	 137.86000617999426
0.001239567996010319 	 132.1273328058838
0.0012614134704511126 	 126.62669771443828
0.0012836439376918808 	 121.40115798087471
0.0013062661826370406 	 116.49116931686376
0.0013292871097644885 	 111.93371712651482
0.0013527137452328934 	 107.76140324205555
0.0013765532390261398 	 104.00155121913217
0.0014008128671355485 	 100.67534842974985
0.0014255000337805718 	 97.79697460905844
0.0014506222736686085 	 95.37290186480926
0.0014761872542946553 	 93.40121326049153
0.00150220277828149 	 91.87112290924618
0.0015286767857610782 	 90.7626652264914
0.0015556173567979736 	 90.0465757372218
0.0015830327138554028 	 89.684441438811
0.0016109312243048274 	 89.6291393172706
0.0016393214029797327 	 89.82551840103604
0.0016682119147744077 	 90.21149198017031
0.001697611577288547 	 90.71936314995422
0.0017275293635184387 	 91.27753100590826
0.0017579744045955932 	 91.81248590263554
0.001788955992573638 	 92.25104838653121
0.0018204835832643096 	 92.52284497665254
0.0018525667991234527 	 92.56293093462497
0.0018852154321878523 	 92.3144064243127
0.0019184394470638415 	 91.73106147248495
0.0019522489839685798 	 90.77973940969123
0.0019866543618249095 	 89.4424379737406
0.0020216660814107836 	 87.71792562312886
0.002057294828564165 	 85.62272215799061
0.0020935514774444424 	 83.19135833803668
0.0021304470938512876 	 80.47577645125796
0.0021679929386020265 	 77.5437334081588
0.0022062004709685343 	 74.47630879435322
0.0022450813521746717 	 71.36434621526568
0.002284647448955397 	 68.30407226454203
0.002324910837178566 	 65.3919624476942
0.002365883805530584 	 62.719080950542214
0.0024075788592670113 	 60.36525263988352
0.0024500087240292437 	 58.39341059030708
0.0024931863497284932 	 56.84449443929727
0.002537124914498179 	 55.733490386175816
0.0025818378287160012 	 55.046864275718356
0.0026273387390968943 	 54.741955333846406
0.00267364153285809 	 54.74853931349627
0.002720760341957619 	 54.972720106789225
0.0027687095474074703 	 55.30317918085534
0.0028175037836627955 	 55.619496534379856
0.0028671579430884575 	 55.80200850007185
0.0029176871805042743 	 55.742608830309074
0.002969106917810405 	 55.35534742636035
0.003021432848694205 	 54.5859132826027
0.003074680943420082 	 53.418746055453454
0.0031288674537037174 	 51.88069652648133
0.0031840089176722194 	 50.04043244404118
0.0032401221649116943 	 48.003052912786906
0.0032972243216037368 	 45.89989972883025
0.003355332815752498 	 43.874351189936846
0.0034144653825038157 	 42.064689734309965
0.0034746400695581238 	 40.586151647006254
0.0035358752426787577 	 39.51440264663508
0.0035981895912972953 	 38.87298892066813
0.00366160213421774 	 38.62719399390408
0.003726132225421178 	 38.686006990361186
0.0037917995599727654 	 38.91291388648463
0.0038586241800328235 	 39.145036096219066
0.003926626480973827 	 39.218236714319886
0.0039958272176052545 	 38.99480847552602
0.004066247510508087 	 38.38894051308415
0.004137908852480971 	 37.38494082158124
0.004210833115100006 	 36.04384052502262
0.004285042555394069 	 34.49550115489601
0.004360559822637869 	 32.915984799364175
0.00443740796526464 	 31.493290171492568
0.004515610437900723 	 30.387298735710228
0.004595191108524072 	 29.692600789041254
0.00467617426574894 	 29.413197340173955
0.00475858462623897 	 29.456792268501218
0.004842447342250868 	 29.652680602036913
0.004927788009311095 	 29.79144513391676
0.005014632674027784 	 29.678464215828726
0.005103007842040369 	 29.188148815009214
0.005192940486109323 	 28.303030265581487
0.005284458054348406 	 27.1243800777269
0.0053775884786020755 	 25.847321762369205
0.005472360182970466 	 24.703996781760004
0.0055688020924846374 	 23.889716830563042
0.0056669436419347395 	 23.49516401298451
0.005766814784853684 	 23.469411606182987
0.005868446002659232 	 23.631291695124045
0.005971868313957111 	 23.730478140305912
0.006077113284008147 	 23.540826731190315
0.006184213034362222 	 22.951919780033403
0.006293200252661983 	 22.020306556422938
0.006404108202619396 	 20.95343599861503
0.006516970734168029 	 20.025109656760705
0.006631822293794356 	 19.453267885413272
0.006748697935051041 	 19.294172361912356
0.006867633329255554 	 19.406945284422807
0.00698866477637735 	 19.5154795483803
0.007111829216116842 	 19.346443895909843
0.007237164239179729 	 18.77719786973769
0.007364708098749906 	 17.91145288345697
0.0074944997221646475 	 17.029747802783675
0.00762657872279554 	 16.42980329082123
0.00776098541213873 	 16.243374308899874
0.007897760812118352 	 16.34429556245403
0.008036946667606666 	 16.42005670443806
0.008178585459164939 	 16.176463414164036
0.008322720416008844 	 15.545673721820432
0.008469395529202286 	 14.7456556943287
0.008618655565083866 	 14.128664384963693
0.00877054607892985 	 13.913191805922299
0.008925113428857991 	 14.00282109976181
0.009082404789976416 	 14.052399205222635
0.00924246816878174 	 13.753065644257266
0.0094053524178111 	 13.106760734481249
0.00957110725055223 	 12.437212816694514
0.009739783256616426 	 12.098075256978165
0.009911431917178902 	 12.129896293829319
0.010086105620691156 	 12.206677992921534
0.010263857678870397 	 11.959282510045055
0.010444742342970603 	 11.368146713605475
0.010628814820340483 	 10.798424694810068
0.010816131291273106 	 10.598832348921729
0.011006748926152568 	 10.691450887346717
0.011200725902902858 	 10.650480354439582
0.01139812142474412 	 10.22100089161148
0.011598995738262001 	 9.65293131135733
0.011803410151795285 	 9.38714067442453
0.012011427054147678 	 9.458702491485244
0.012223109933629388 	 9.434226062882269
0.01243852339743414 	 9.025472674216346
0.01265773319135786 	 8.524533344514152
0.012880806219864711 	 8.37218368364695
0.01310781056650687 	 8.463296079358669
0.013338815514704165 	 8.30248174906633
0.01357389156888981 	 7.825286349853924
0.013813110476028984 	 7.520355453498711
0.01405654524751645 	 7.5757976621532634
0.014304270181460214 	 7.527636325036126
0.014556360885357908 	 7.115837446377763
0.014812894299172655 	 6.791569718799025
0.015073948718815853 	 6.836105006509435
0.015339603820043525 	 6.784190834812199
0.015609940682774104 	 6.38469865327233
0.0158850418158345 	 6.142477821888772
0.01616499118214247 	 6.217983490633773
0.016449874224332764 	 6.058531080024979
0.01673977789083475 	 5.671444680094567
0.017034790662409843 	 5.613854808112054
0.0173350025791564 	 5.637378058383261
0.01764050526799064 	 5.3042660948420055
0.01795139197061197 	 5.1053631576391485
0.018267757571960863 	 5.175836346301421
0.018589698629178638 	 4.93789377059357
0.01891731340107728 	 4.677854075049715
0.019250701878128804 	 4.744399031124038
0.019589965812983168 	 4.553876806382816
0.019935208751523794 	 4.294390179724068
0.020286536064470707 	 4.365852737785598
0.020644054979540326 	 4.15449581646125
0.021007874614172216 	 3.953919444006046
0.021378106008832616 	 4.022759859938393
0.021754862160904654 	 3.745942906386799
0.022138258059176196 	 3.6839218757217966
0.022528410718935066 	 3.6517982484443974
0.022925439217683186 	 3.3955509447816823
0.023329464731479763 	 3.441039794643865
0.023740610571925183 	 3.2458083066422105
0.024159002223796702 	 3.1651748929327117
0.024584767383347174 	 3.112865613943972
0.0250180359972791 	 2.939346952693576
0.025458940302405142 	 2.930655594812535
0.02590761486600788 	 2.7737078099331773
0.0263641966269108 	 2.726330355426626
0.026828824937272896 	 2.6265007441514245
0.027301641605120164 	 2.5369969841803903
0.027782790937626322 	 2.473431943561373
0.028272419785156475 	 2.3720500382513876
0.028770677586087045 	 2.3156739205686634
0.029277716412415302 	 2.223808240905273
0.029793691016173057 	 2.162185953658816
0.030318758876657952 	 2.084089893574578
0.030853080248497467 	 2.0182007305368193
0.03139681821055976 	 1.9499181187069183
0.03195013871572655 	 1.8841977770710165
0.03251321064154318 	 1.821675255664158
0.033086205841761335 	 1.7588799058023117
0.03366929919879005 	 1.7002460280959235
0.03426266867707114 	 1.641222547710613
0.03486649537739527 	 1.5859342162727255
0.03548096359217531 	 1.530755773445514
0.03610626086169365 	 1.478651343362747
0.036742578031341004 	 1.4272044820840388
0.0373901093098638 	 1.378224816320096
0.038049052328638124 	 1.33031043464671
0.038719608201988345 	 1.2844471272169449
0.03940198158856859 	 1.2398412725972028
0.04009638075382624 	 1.1970562736510801
0.04080301763356601 	 1.155580062585687
0.04152210789863435 	 1.1157691216480323
0.042253871020743815 	 1.0772788914327505
0.042998530339457414 	 1.0403091868108596
0.04375631313035358 	 1.004651614220671
0.04452745067439236 	 0.9703917016709132
0.04531217832850405 	 0.9373948417639308
0.04611073559742191 	 0.9057030978850359
0.046923366206780816 	 0.875196529560771
0.04775031817750407 	 0.8459048742523358
0.04859184390150131 	 0.8177223282547182
0.04944820021870039 	 0.7906503655680905
0.05031964849543682 	 0.7646121102841149
0.05120645470422477 	 0.7395810654354211
0.05210888950493371 	 0.7154943154112763
0.053027228327396064 	 0.6923207638809472
0.05396175145547025 	 0.6699930774701143
0.05491274411258552 	 0.6484835844132245
0.055880496548794185 	 0.6277262870924083
0.056865304129358224 	 0.6076885180050932
0.05786746742489677 	 0.5883130124876309
0.05888729230312271 	 0.5695611030207778
0.05992509002219568 	 0.551385469494769
0.060981177325720407 	 0.533744589414539
0.062055876539419234 	 0.5165951432687564
0.06314951566950823 	 0.49990714223849486
0.0642624285028073 	 0.4836341456258047
0.0653949547086143 	 0.4677500367294438
0.06654743994237469 	 0.4522254947361302
0.0677202359511781 	 0.4370336007016426
0.06891370068111427 	 0.42214950659331674
0.07012819838652065 	 0.40756058666208805
0.07136409974115585 	 0.3932493209816928
0.07262178195133179 	 0.3792053639198091
0.07390162887103997 	 0.3654236206443183
0.07520403111910663 	 0.3519052376621637
0.0765293861984123 	 0.33864872169685334
0.07787809861721298 	 0.32566144288786997
0.07925058001259883 	 0.31295435485452544
0.08064724927612894 	 0.3005399243788749
0.08206853268168023 	 0.28843190968735016
0.08351486401554935 	 0.276650569965196
0.08498668470884738 	 0.2652122052436522
0.0864844439722282 	 0.25413738161800675
0.08800859893299065 	 0.24344711573011266
0.08955961477459733 	 0.23315908522188192
0.09113796487865204 	 0.22328854448790308
0.09274413096937925 	 0.2138521418078677
0.09437860326065022 	 0.20486250777407194
0.09604188060559958 	 0.196325773831944
0.09773447064887934 	 0.18824227238835303
0.09945688998159559 	 0.18061262282148283
0.10120966429897614 	 0.17343067015665461
0.10299332856081637 	 0.16668067296767142
0.10480842715475326 	 0.16034251793990054
0.10665551406241637 	 0.15439413623832451
0.10853515302850722 	 0.1488070179149725
0.1104479177328584 	 0.14354605777989016
0.11239439196552477 	 0.13857425975711596
0.11437516980496076 	 0.1338541576716743
0.11639085579933747 	 0.12934381567745978
0.11844206515105525 	 0.12500401661498048
0.12052942390450806 	 0.12079903392759173
0.12265356913715701 	 0.11669237088588888
0.12481514915397077 	 0.1126520901273734
0.12701482368529363 	 0.10865599760936748
0.1292532640881998 	 0.10468837111476695
0.13153115355139652 	 0.10073722176888698
0.13384918730373874 	 0.09679696249460702
0.13620807282641756 	 0.09287622047757542
0.1386085300688893 	 0.08898866390122435
0.14105129166860922 	 0.08514871101931941
0.14353710317463797 	 0.08138053651847478
0.14606672327518863 	 0.07771159530866503
0.14864092402918422 	 0.07416620401255637
0.15126049110189554 	 0.07077134250806696
0.15392622400473238 	 0.06755285298111893
0.1566389363392602 	 0.0645262216252113
0.15939945604551747 	 0.061699743045612924
0.1622086256547091 	 0.059079983732988686
0.16506730254635302 	 0.056664337723079515
0.16797635920995937 	 0.05443764718807643
0.1709366835113203 	 0.05237826569719837
0.17394917896349343 	 0.05046277652871855
0.17701476500256075 	 0.048660960146611566
0.1801343772682475 	 0.04693968434207311
0.18330896788948592 	 0.045273335480917484
0.18653950577501272 	 0.04363575606194753
0.18982697690908695 	 0.04200253444227222
0.19317238465241976 	 0.040364586304227165
0.19657675004840763 	 0.038721732539659
0.20004111213476217 	 0.03707580451499778
0.20356652826063265 	 0.035437356456866055
0.20715407440931652 	 0.03382731877370007
0.2108048455266576 	 0.032264893463715444
0.21451995585523176 	 0.03076746841948025
0.2183005392744221 	 0.02935682363016098
0.22214774964648706 	 0.02804558781496016
0.2260627611687284 	 0.026833020511335143
0.23004676873186444 	 0.025718012900379103
0.23410098828471992 	 0.02469410511733235
0.23822665720534264 	 0.023741760455207397
0.24242503467866 	 0.02284108997801262
0.24669740208079236 	 0.021975879013652378
0.2510450633701381 	 0.021126583805382588
0.25546934548535166 	 0.020280794011145277
0.25997159875033504 	 0.019437636756889747
0.2645531972863668 	 0.01859743169562633
0.2692155394314936 	 0.017765956105518944
0.2739600481673145 	 0.016957283893096614
0.2787881715532846 	 0.016182438733152355
0.2837013831686738 	 0.015449495194601736
0.28870118256231475 	 0.014767965291854592
0.293789095710275 	 0.014139012823398389
0.29896667548159805 	 0.013553689765902372
0.30423550211224926 	 0.013004934181605967
0.3095971836874161 	 0.012483062624928418
0.31505335663230766 	 0.011975269555725468
0.3206056862116039 	 0.01147703253362127
0.326255867037707 	 0.010986157838652373
0.3320056235879492 	 0.010501835937285372
0.3378567107309167 	 0.010031322252504643
0.3438109142620487 	 0.009580328632760737
0.34987005144867434 	 0.00915215538742629
0.35603597158465805 	 0.008751668144235742
0.3623105565548163 	 0.00837711968516054
0.36869572140928375 	 0.008023839291229327
0.37519341494800046 	 0.007687483157369633
0.38180562031550025 	 0.007362367281974786
0.3885343556061812 	 0.007045001067587402
0.39538167448024336 	 0.006736343086699471
0.40234966679048056 	 0.006437413216234557
0.4094404592201198 	 0.0061501006186655644
0.4166562159319003 	 0.005877883237553905
0.4239991392285921 	 0.00561997673196826
0.43147147022515603 	 0.005376134731335355
0.43907548953274755 	 0.005144347209591768
0.44681351795477725 	 0.004921455467285467
0.4546879171952371 	 0.004706682112900677
0.4627010905795096 	 0.00449906853615523
0.4708554837878815 	 0.004299256846839448
0.47915358560198307 	 0.00410821486049243
0.48759792866438273 	 0.003926476717933695
0.496191090251569 	 0.003753550776193893
0.5049356930605542 	 0.0035888018488873783
0.5138344060093407 	 0.0034310940964064835
0.5228899450514957 	 0.003279353863497083
0.532105074005079 	 0.0031338742271094545
0.5414826053961826 	 0.002994275389523575
0.5510254013173335 	 0.00286090912388165
0.5607363743010254 	 0.002733927649359163
0.5706184882086469 	 0.002612548912506993
0.5806747591350724 	 0.002496469409638098
0.5909082563291974 	 0.0023853433902973078
0.6013221031306967 	 0.0022788529162821765
0.6119194779232904 	 0.0021768948581703932
0.62270361510481 	 0.0020795941298487114
0.6336778060743615 	 0.001986641141267348
0.6448454002368845 	 0.001897714320303564
0.6562098060254159 	 0.0018127506648416532
0.6677744919413683 	 0.0017314357415476132
0.6795429876131437 	 0.0016536695460190336
0.6915188848734013 	 0.0015793402080567529
0.7037058388553125 	 0.0015083262722098646
0.716107569108134 	 0.0014404664401000407
0.7287278607324426 	 0.0013755630207768063
0.7415705655353763 	 0.0013135345209490251
0.754639603206233 	 0.0012542437747966651
0.7679389625127917 	 0.001197595615196401
0.7814727025187111 	 0.0011434451028574642
0.7952449538223885 	 0.0010916941573657333
0.8092599198176481 	 0.0010422467498187346
0.8235218779766481 	 0.0009949830071020432
0.8380351811553974 	 0.0009498354272011395
0.8528042589222805 	 0.0009066954019208123
0.8678336189099926 	 0.0008654643349681282
0.8831278481913052 	 0.0008260788201100564
0.8986916146790739 	 0.0007884566640587807
0.914529668550919 	 0.0007525059990057308
0.9306468436990178 	 0.0007181694834759377
0.947048059205442 	 0.0006853560896765587
0.9637383208434996 	 0.0006540249828691459
0.9807227226055342 	 0.0006240939048834631
0.9980064482576492 	 0.0005954812906051276
1.0155947729218313 	 0.0005681868419265767
1.0334930646859581 	 0.0005420900498539778
1.0517067862421785 	 0.0005171621395750498
1.070241496554166 	 0.0004933786035987655
1.0891028525537567 	 0.0004706248133165734
1.1082966108674877 	 0.0004489373339788945
1.127828629573561 	 0.00042819381432272194
1.1477048699897734 	 0.0004083528957084526
1.1679313984929556 	 0.0003895719043263818
1.1885143883704752 	 0.000371357194267333
1.2094601217043695 	 0.0003530173894066079
1.230774991288685 	 0.0003348400007197559
1.2524655025806049 	 0.0003175176535538439
1.2745382756859631 	 0.0003011276125841538
1.297000047379751 	 0.00028555957851092174
1.3198576731622305 	 0.00027079974661592973
1.343118129351283 	 0.00025677424949170776
1.3667885152116366 	 0.00024348080294371626
1.3908760551216106 	 0.00023085046692310863
1.4153881007780535 	 0.00021886239076044915
1.4403321334401327 	 0.00020749180988861033
1.4657157662126727 	 0.00019667935675546995
1.4915467463697303 	 0.00018643138935327876
1.5178329577191212 	 0.00017668693549808414
1.5445824230086154 	 0.00016743868352012093
1.5718033063745427 	 0.00015865610954197843
1.5995039158335442 	 0.0001503083573502412
1.6276927058182438 	 0.0001423848350678271
