###############
#    GaPSE    #
############### 
#
# This is an integration map on mu of the ξ L=0 multipole concerning the PP Galaxies.
# The Cosmology considered had the following paremeters:
# 
# - Matter Power Spectrum input file: "../test/datatest/file_pk.txt"
# - Background data input file: "../data/WideA_ZA_background.dat"
# - F window function input file: "../data/F_REFERENCE_pi2.txt"
# - Integrated F window function input file: "../data/IntegrF_REFERENCE_pi2_z115.txt"
#
# - Basic CosmoParams considered: 
#	 z_min = 1.0 	 z_max = 1.5
#	 θ_max = 1.5707963267948966 [rad] 	 h_0 = 0.7
#	 Ω_b = 0.0489 	 Ω_cdm = 0.25102 	 Ω_M0 = 0.29992
#	 b = 1.5 	 f_evo = 0.0 	 s_b = 0.0
#
# - CosmoParams about the Input Power Spectrum: 
#	 fit_left_min = 1.0e-6 	 fit_right_min = 10.0 	 
#	 fit_left_max = 3.0e-6 	 fit_right_max = 20.0 	 
#
# - CosmoParams about the Input Power Spectrum Tools: 
#	 k_max = 10.0 	 fit_max = 0.5 	 N = 1024 	 
#	 con = true 	 k_min = 1.0e-8 	 fit_min = 0.05 	 
#
# - Computed quantities: 
# 	 effective redshift z_eff = 1.2613556177172358 
# 	 comoving s_min = 2312.5774317555542 Mpc/h_0
# 	 comoving s_max = 3054.483020067565 Mpc/h_0
# 	 comoving s_eff = 2725.877200832351 Mpc/h_0
# 	 Volume of the survey V_survey = 3.3783056930052956e10 Mpc^3/h_0^3
# 	 σ_0 = 15.593462966741178
# 	 σ_1 = 15.074895881392285
# 	 σ_2 = 100.85852368830226
# 	 σ_3 = 3735.1226181519773
# 	 σ_4 = 3.415930015488999e6
# 	 (where σ_i = \int_{k_{min}}^{k_{max}}\frac{dq}{2 π^2} q^{2-i} P(q))
# 
# computational time needed (in s) : 4.1032
# kwards passed: 
# 		L = 0
# 		use_windows = true
# 		pr = true
# 		enhancer = 1.0e6
# 		atol_quad = 0.0
# 		rtol_quad = 0.01
# 
# s [Mpc/h_0] 	 	 xi
1.0 	 5.1453769113523755
1.0176234579394636 	 5.076416641154361
1.0355575021486711 	 5.007946846282067
1.0538076062316843 	 4.939967196953961
1.072379340256395 	 4.872477017851097
1.0912783724545534 	 4.805476100803863
1.1105104709517524 	 4.738963959083481
1.1300815055279045 	 4.6729404936154575
1.1499974494087413 	 4.607405422258159
1.1702643810888866 	 4.542358751973925
1.190888486187059 	 4.477800410919091
1.2118760593339681 	 4.4137305186003895
1.2332335060934831 	 4.350149209683748
1.2549673449176588 	 4.287056730355671
1.2770842091362153 	 4.224453411026588
1.2995908489810806 	 4.162339642967995
1.3224941336466105 	 4.100715938113796
1.3458010533861189 	 4.039582851536762
1.3695187216453548 	 3.978941062695708
1.3936543772335797 	 3.9187913057696977
1.4182153865329048 	 3.859134417021372
1.4432092457465677 	 3.7999713188322075
1.4686435831868272 	 3.741302998669261
1.4945261616031833 	 3.683130568559927
1.520864880551625 	 3.6254551670251915
1.5476677788056337 	 3.568278089555959
1.574943036809678 	 3.5116006298534037
1.6026989791759443 	 3.4554242543890035
1.6309440772250727 	 3.3997504180936855
1.6596869515716661 	 3.3445807418628037
1.6889363747553658 	 3.2899168468365727
1.718701273918297 	 3.235760490289068
1.7489907335296988 	 3.1821134604649055
1.7798139981585708 	 3.128977633817262
1.811180475295187 	 3.076354960018175
1.8430997382223293 	 3.0242474198531917
1.8755815289371267 	 2.9726571106364226
1.908635761124385 	 2.921586105331325
1.9422725231823168 	 2.8710366266368696
1.9765020813015959 	 2.8210108287323554
2.011334882598677 	 2.7715110301448944
2.0467815583043305 	 2.722539454263641
2.0828529270083767 	 2.6740984809010735
2.119559997961597 	 2.6261903868063605
2.156913974435843 	 2.5788175756787206
2.1949262571433543 	 2.53198235544638
2.2336084477163447 	 2.485687114945513
2.272972352247904 	 2.439934162846197
2.3130299848953086 	 2.3947258336098924
2.353793571546829 	 2.3500643970596142
2.395275553553164 	 2.3059520929131256
2.437488591524634 	 2.262391103795421
2.4804455691952905 	 2.2193835327517504
2.5241595973551325 	 2.1769314192742546
2.568644017851614 	 2.135036684706399
2.6139124076616764 	 2.093701163219536
2.659978583035544 	 2.052926544399528
2.706856603713545 	 2.0127143903789237
2.75456077721725 	 1.973066102747971
2.803105663216234 	 1.9339829025565478
2.8525060779717974 	 1.89546584058667
2.9027770988589974 	 1.8575157268811453
2.953934068968377 	 1.820133191702125
3.00599260178879 	 1.7833185638173434
3.0589685859727536 	 1.7470719773371979
3.1128781901857843 	 1.711393210304752
3.167737868041197 	 1.6762818219203568
3.223564363121867 	 1.6417369716499532
3.2803747140904993 	 1.607757564310448
3.3381862598899525 	 1.5743420742437462
3.3970166450352193 	 1.5414886749267995
3.4568838249986547 	 1.5091950920641597
3.51780607169013 	 1.4774586983609914
3.579801979033751 	 1.4462764121086873
3.6428904686428605 	 1.415644746032327
3.7070907955950605 	 1.3855597585947481
3.7724225543090033 	 1.3560170577055337
3.838905684524751 	 1.3270118014781667
3.9065604773895406 	 1.298538666572228
3.9754075816507863 	 1.2705918858139873
4.045468009958233 	 1.2431651981282643
4.1167631452771785 	 1.2162519073945905
4.189314747414704 	 1.1898448335163896
4.263144959660941 	 1.1639363751872072
4.338276315547362 	 1.1385184786331657
4.414731745724182 	 1.113582692105611
4.492534584958967 	 1.0891201649590376
4.571708579258576 	 1.065121687046749
4.652277893116625 	 1.0415777210796453
4.734267116888661 	 1.0184784282110628
4.817701274297335 	 0.9958137312242141
4.902605830069813 	 0.9735733336556649
4.989006697709819 	 0.9517468019846049
5.076930247406609 	 0.9303235906036852
5.166403314083369 	 0.9092931300711602
5.2574532055874235 	 0.8886448703358398
5.350107711024791 	 0.8683683581257536
5.444395109241635 	 0.8484533103460061
5.540344177455178 	 0.8288896684056726
5.63798420003671 	 0.8096677055039629
5.737344977449417 	 0.7907780485436795
5.83845683534369 	 0.7722118195595271
5.941350633812743 	 0.7539606210796167
6.046057776811348 	 0.736016700600494
6.152610221740549 	 0.7183729035699449
6.2610404892013065 	 0.7010228446511909
6.371381672920025 	 0.6839608327442724
6.4836674498489995 	 0.6671820304240635
6.597932090444882 	 0.6506823591927998
6.714210469128275 	 0.6344586244780442
6.832538074927663 	 0.6185084102702678
6.952951022310933 	 0.6028301518582713
7.075486062207781 	 0.5874230228207679
7.20018059322636 	 0.5722869467934111
7.327072673067628 	 0.5574224760841918
7.456201030140828 	 0.5428307405670948
7.587605075383698 	 0.528513317081425
7.721324914290984 	 0.5144721209082858
7.857401359154923 	 0.5007092654557206
7.995875941521473 	 0.4872269106804008
8.136790924866046 	 0.47402711404567904
8.280189317492631 	 0.46111165811791155
8.426114885660258 	 0.44848189836654756
8.574612166940781 	 0.43613859676572786
8.725726483812073 	 0.42408177893555654
8.879503957490801 	 0.4123106016692388
9.035991522008938 	 0.40082323915667295
9.195236938538413 	 0.3896168096737328
9.357288809968146 	 0.37868731535133004
9.522196595738032 	 0.36802964710499114
9.690010626934324 	 0.35763760197006994
9.860782121651058 	 0.3475039753960642
10.03456320062219 	 0.33762067292938425
10.211406903129243 	 0.32797888533418973
10.391367203189287 	 0.31856929683697593
10.574499026028219 	 0.30938232170242114
10.760858264844325 	 0.3004083910998333
10.950501797867338 	 0.2916382115354737
11.14348750571807 	 0.2830630899755353
11.33987428907403 	 0.2746751589531544
11.539722086646336 	 0.2664676803193387
11.743091893473444 	 0.2584351741332321
11.950045779537328 	 0.2505736319187771
12.160646908707667 	 0.24288049257656963
12.374959558019944 	 0.23535470379379528
12.59304913729327 	 0.2279965124602897
12.814982209093962 	 0.22080734190380252
13.040826509050902 	 0.21378940674284833
13.270650966529 	 0.2069454230692222
13.504525725666925 	 0.20027811247056976
13.742522166785617 	 0.19378982204780076
13.984712928174115 	 0.18748203520872891
14.231171928259263 	 0.18135502957866315
14.481974388166215 	 0.17540754206078796
14.73719685467645 	 0.16963661043233866
14.996917223590433 	 0.16403752481114475
15.261214763501995 	 0.1586039613565171
15.530170139991698 	 0.1533282779124314
15.803865440246554 	 0.1482019499964274
16.08238419811368 	 0.14321614310732977
16.365811419595428 	 0.13836232416609937
16.65423360879386 	 0.13363290557134475
16.947738794312446 	 0.1290217841358555
17.246416556123023 	 0.12452476846903382
17.550358052906326 	 0.12013976527081563
17.859656049874243 	 0.11586674179113583
18.174404947082486 	 0.11170739260847772
18.49470080824217 	 0.10766458267273914
18.8206413900392 	 0.10374157918422255
19.15232617197028 	 0.09994121289269009
19.489856386704883 	 0.09626504425092193
19.83333505098216 	 0.09271271943030317
20.182866997052432 	 0.08928157503445155
20.53855890467278 	 0.08596665940954655
20.900519333666473 	 0.082761102398453
21.26885875705629 	 0.07965692324745235
21.64368959478166 	 0.07664600642950438
22.025126248010096 	 0.07372125848082348
22.413285134053275 	 0.07087750790794138
22.808284721898477 	 0.06811219126420676
23.21024556836616 	 0.06542537899720985
23.619290354904884 	 0.06281938281577128
24.035543925034524 	 0.060297678427117016
24.459133322449496 	 0.057863672837345365
24.89018782979343 	 0.05551927467181156
25.32883900811714 	 0.053263940882505134
25.775220737032132 	 0.05109418141625031
26.229469255571605 	 0.04900398266672049
26.69172320377162 	 0.04698585094517
27.162123664985092 	 0.04503244333649788
27.640814208941478 	 0.043138164711407766
28.12794093556528 	 0.04130036174938119
28.623652519566928 	 0.039519610794349236
29.128100255819334 	 0.037798962574228705
29.64143810553424 	 0.03614233299576351
30.16382274325235 	 0.034552481034524934
30.69541360466149 	 0.0330293938981596
31.236372935257677 	 0.031569579472843265
31.786865839863584 	 0.03016680461370891
32.34706033301979 	 0.02881387751444091
32.91712739026405 	 0.02750504951334148
33.49724100031435 	 0.02623777449814703
34.08757821817146 	 0.025013261202645663
34.68831921915758 	 0.02383517414306999
35.29964735390708 	 0.022707264157293502
35.92174920432655 	 0.021630718172928137
36.554814640540975 	 0.020602886986918673
37.19903687884344 	 0.019617851985735294
37.85461254066628 	 0.018668994962102777
38.5217417125914 	 0.017751911932394015
39.20062800741813 	 0.016866350473252543
39.89147862630742 	 0.016015526976606426
40.594504422021174 	 0.015203475546289123
41.30991996327603 	 0.014431555853065157
42.03794360023143 	 0.013696880317943581
42.778797531131644 	 0.012993375636864656
43.532707870122366 	 0.012315452876121383
44.29990471626244 	 0.011661184864508334
45.08062222375173 	 0.011033129594518734
45.87509867339686 	 0.010435372006892457
46.68357654533621 	 0.009869553055420718
47.50630259304667 	 0.009332532100092697
48.34352791865465 	 0.008818418947443646
49.195508049574364 	 0.008322876300872981
50.06250301649657 	 0.00784639007445696
50.94477743275206 	 0.007392870801833042
51.8426005750735 	 0.006965036860625211
52.75624646578071 	 0.00656078711020256
53.68599395641439 	 0.006174571866415788
54.63212681284355 	 0.005802564795119492
55.59493380187314 	 0.00544598701437531
56.5747087793777 	 0.005108935821521736
57.57175077998846 	 0.004792523159868164
58.58636410836086 	 0.004492861575253801
59.618858432050686 	 0.004204879680314155
60.66954887602675 	 0.003928276092001999
61.738756118849636 	 0.003666695286505973
62.826806490544975 	 0.0034221011887173923
63.93403207220191 	 0.003190735114491236
65.0607707973267 	 0.0029680864830400914
66.20736655498246 	 0.0027543393482680418
67.37416929474684 	 0.002553425008409557
68.5615351335191 	 0.002365291969283343
69.76982646420971 	 0.002185390960395336
70.99941206634539 	 0.0020110597673233034
72.25066721862329 	 0.0018454864941604564
73.52397381344888 	 0.001690650878867491
74.81972047349241 	 0.001543136332679458
76.13830267029941 	 0.0013997447610647597
77.48012284499157 	 0.0012634592851746174
78.84559053109479 	 0.0011371986421176887
80.2351224795317 	 0.0010188194239888228
81.64914278581742 	 0.0009077090879767875
83.08808301949652 	 0.0008099668680929724
84.55238235586127 	 0.0007312611105466344
86.04248770999126 	 0.0006743604707077218
87.5588538731551 	 0.0006474652316953548
89.10194365161628 	 0.0006628791480082936
90.67222800788498 	 0.0007264983380309969
92.27018620445939 	 0.0008383102821512085
93.89630595010014 	 0.0009948591467882982
95.55108354868277 	 0.001179569076716818
97.23502405067315 	 0.0013633599515228524
98.9486414072729 	 0.0015178786764041337
100.69245862728103 	 0.001617597084725436
102.46700793672014 	 0.0016429952861952465
104.27283094127554 	 0.0015920617559012345
106.11047879159794 	 0.0014751235754518193
107.98051235151794 	 0.0013067304483476091
109.8835023692267 	 0.001109407694394362
111.82002965147176 	 0.0009026847508630894
113.79068524082398 	 0.0006999159767053881
115.79607059606842 	 0.0005138383914184647
117.83679777577332 	 0.00034844392785777573
119.91348962509578 	 0.00020705337825491603
122.026779965878 	 9.117607795114534e-5
124.17731379009476 	 -1.3338736831624196e-6
126.36574745671011 	 -7.813521034398573e-5
128.59274889200225 	 -0.0001360434439043593
130.8589977934205 	 -0.00017920388727744033
133.16518583703325 	 -0.0002106094697559615
135.51201688863299 	 -0.0002328704076133147
137.90020721856175 	 -0.0002457834778958855
140.3304857203213 	 -0.00025445380099702405
142.80359413303793 	 -0.0002579552435669466
145.32028726784566 	 -0.00025827188002753383
147.88133323826136 	 -0.0002554403572486627
150.48751369461772 	 -0.00025070486107526565
153.13962406262917 	 -0.00024436132344437964
155.83847378616224 	 -0.00023697312105296664
158.58488657428276 	 -0.00022871350822068542
161.37970065265932 	 -0.0002199615819785906
164.22376901939475 	 -0.00021092998025860484
167.11795970536812 	 -0.0002016944572606434
170.06315603916474 	 -0.00019240055462500363
173.06025691667327 	 -0.00018323033649563482
176.1101770754371 	 -0.00017416569378392172
179.2138473738376 	 -0.0001650748614949473
182.3722150751998 	 -0.0001561491157056771
185.58624413690444 	 -0.00014730434323278894
188.85691550459407 	 -0.00013852717432573852
192.1852274115662 	 -0.00013010676483408574
195.57219568344027 	 -0.00012233089707722438
199.01885404819578 	 -0.00011523216666044259
202.5262544516745 	 -0.00010897557119322196
206.09546737864056 	 -0.00010357263140749879
209.7275821795022 	 -9.853115437464197e-5
213.42370740278793 	 -9.369832139380069e-5
217.18497113348542 	 -8.899320106888055e-5
221.0125213373401 	 -8.410175951007746e-5
224.90752621122337 	 -7.915315235165665e-5
228.87117453967576 	 -7.431711148553975e-5
232.90467605773122 	 -6.944556678322231e-5
237.00926182013913 	 -6.476211670768231e-5
241.18618457708976 	 -6.040970217856384e-5
245.43671915656367 	 -5.616969603499361e-5
249.7621628534194 	 -5.227260935486227e-5
254.16383582533592 	 -4.86924500085905e-5
258.64308149573657 	 -4.521262844301425e-5
263.20126696381004 	 -4.2113602650699304e-5
267.8397834217601 	 -3.9184336474141324e-5
272.56004657940866 	 -3.6382468995509724e-5
277.36349709627893 	 -3.391740115570678e-5
282.25160102129786 	 -3.150992329768046e-5
287.22585024024306 	 -2.9275508836761615e-5
292.2877629310785 	 -2.7300653785992496e-5
297.4388840273143 	 -2.531313292147736e-5
302.6807856895305 	 -2.3548334113489326e-5
308.0150677852139 	 -2.1925205361921266e-5
313.44335837704745 	 -2.0309231170912313e-5
318.9673142198097 	 -1.8914472343996245e-5
324.5886212660263 	 -1.755788082940098e-5
330.30899518053633 	 -1.6267315410342333e-5
336.13018186412717 	 -1.5135852469023804e-5
342.05395798639364 	 -1.401230190761837e-5
348.082131527994 	 -1.300867035355294e-5
354.2165423324566 	 -1.20503454658146e-5
360.45906266771465 	 -1.115871152174304e-5
366.81159779753773 	 -1.0348909490808191e-5
373.2760865630298 	 -9.542221601527462e-6
379.8545019743811 	 -8.883391618959046e-6
386.5488518130427 	 -8.142787762731873e-6
393.36117924451753 	 -7.577961220361761e-6
400.2935634419512 	 -6.9836778600495035e-6
407.3481202207082 	 -6.406989237777179e-6
414.5270026841376 	 -5.992017554184578e-6
421.8324018807136 	 -5.433648261508909e-6
429.266547472761 	 -5.069533520300843e-6
436.8317084169661 	 -4.6462623824144625e-6
444.53019365687624 	 -4.262970978564189e-6
452.36435282761 	 -3.9385233035163225e-6
460.3365769729802 	 -3.6011752033447147e-6
468.4492992752599 	 -3.3160709659891315e-6
476.7049957978088 	 -3.0216637509675266e-6
485.10618624078336 	 -2.8002877317343904e-6
493.65543471017156 	 -2.512118279836249e-6
502.3553505003736 	 -2.3533935218609326e-6
511.2085888905816 	 -2.0995904607880815e-6
520.2178519551875 	 -1.94821257187309e-6
529.3858893884775 	 -1.7708442872805302e-6
538.7154993438611 	 -1.59630699804582e-6
548.2095292878844 	 -1.4764765765056574e-6
557.8708768693028 	 -1.3196934136239973e-6
567.7024908034608 	 -1.2055972951984513e-6
577.707371772264 	 -1.0917442762124415e-6
587.8885733400108 	 -9.810086498726476e-7
598.2492028853594 	 -8.872640456713388e-7
608.7924225497273 	 -7.982260036000057e-7
619.5214502023969 	 -7.153800095278748e-7
630.4395604226339 	 -6.366500056385204e-7
641.5500854991163 	 -5.796122905525894e-7
652.8564164469689 	 -4.951317497220099e-7
664.3620040427313 	 -4.6472104340772224e-7
676.0703598775564 	 -3.8341393788990907e-7
687.985057428976 	 -3.5876579738209733e-7
700.1097331515554 	 -2.9699846283861323e-7
712.4480875867604 	 -2.692316064945196e-7
725.0038864923972 	 -2.314667138138572e-7
737.7809619919432 	 -2.0176019416959854e-7
750.7832137441454 	 -1.7081577416108972e-7
764.014610133221 	 -1.4898219468608376e-7
777.479189480039 	 -1.2059329737942115e-7
791.1810612746491 	 -1.009187800071929e-7
805.1244074305225 	 -8.149843084266806e-8
819.3134835609102 	 -6.787763505856672e-8
833.7526202776816 	 -5.985428380446472e-8
848.4462245130624 	 -4.494584360083419e-8
863.3987808646654 	 -4.097173911752224e-8
878.6148529642173 	 -2.796036977971969e-8
894.0990848704206 	 -2.3299999135703936e-8
909.8562024863477 	 -1.6475048191727756e-8
925.8910150018253 	 -1.3189771304278689e-8
942.2084163612376 	 -9.507691068247794e-9
958.8133867571879 	 -6.836012050397713e-9
975.7109941504982 	 -3.332670185741276e-9
992.9063958169821 	 -1.7686201173016084e-9
1010.4048399214864 	 6.261090721494215e-10
1028.2116671196736 	 1.1313338871271395e-9
1046.3323121880223 	 1.999209189899278e-9
1064.77230568257 	 3.171145703914278e-9
1083.5372756268719 	 3.1116116095110867e-9
1102.6329492297234 	 4.3147007660588114e-9
1122.0651546331405 	 3.820038192881073e-9
1141.8398226911547 	 4.071625639273471e-9
1161.9629887799572 	 4.051066935099311e-9
1182.4407946399335 	 3.6487669000571944e-9
1203.2794902501767 	 3.813841685872432e-9
1224.4854357360205 	 3.6679243822196696e-9
1246.0651033101992 	 3.0626091900074255e-9
1268.0250792482202 	 3.3444044734584914e-9
1290.3720658985355 	 2.4710532793162515e-9
1313.1128837281576 	 2.830834096179062e-9
1336.254473404309 	 1.9140969772874395e-9
1359.8038979127691 	 2.0594634856678705e-9
1383.768344713554 	 1.4879829010381513e-9
1408.1551279345736 	 1.1647181674635381e-9
1432.9716906039691 	 1.0733727432720012e-9
1458.2256069217708 	 7.768479017027036e-10
1483.9245845716043 	 6.47672834974608e-10
1510.0764670731387 	 3.95638773787641e-10
1536.6892361759749 	 2.022866414879836e-10
1563.7710142957494 	 5.7176032059209433e-11
1591.3300669931418 	 -1.7996872069751138e-10
1619.3748054966 	 -2.3671004141964984e-10
1647.9137892694969 	 -4.667473934965802e-10
1676.9557286225488 	 -5.013219813485272e-10
1706.5094873722715 	 -6.526068583615675e-10
1736.5840855462714 	 -7.255056633291782e-10
1767.1887021362386 	 -7.781732599785273e-10
1798.3326778994324 	 -8.783999656835642e-10
1830.025518209555 	 -8.827715276609883e-10
1862.2768959578668 	 -9.726394414502154e-10
1895.0966545054139 	 -9.795250598331175e-10
1928.494810687309 	 -1.0264525966898636e-9
1962.4815578699313 	 -1.040913813690497e-9
1997.0672690620238 	 -1.0417839567597066e-9
2032.2625000806186 	 -1.0802633922609443e-9
2068.077992772737 	 -1.0384467048993929e-9
2104.524678293899 	 -1.0762327909886756e-9
2141.6136804443754 	 -1.0295327877895239e-9
2179.3563190642653 	 -1.0524075364646304e-9
2217.7641134883993 	 -9.992709160641294e-10
2256.8487860621126 	 -1.0125157162949181e-9
2296.6222657190083 	 -1.0100433713068265e-9
