###############
#    GaPSE    #
############### 
#
# This is an integration map on mu of the ξ L=2 multipole concerning the PP Galaxies.
# The Cosmology considered had the following paremeters:
# 
# - Matter Power Spectrum input file: "../test/datatest/file_pk.txt"
# - Background data input file: "../data/WideA_ZA_background.dat"
# - F window function input file: "../data/F_REFERENCE_pi2.txt"
# - Integrated F window function input file: "../data/IntegrF_REFERENCE_pi2_z115.txt"
#
# - Basic CosmoParams considered: 
#	 z_min = 1.0 	 z_max = 1.5
#	 θ_max = 1.5707963267948966 [rad] 	 h_0 = 0.7
#	 Ω_b = 0.0489 	 Ω_cdm = 0.25102 	 Ω_M0 = 0.29992
#	 b = 1.5 	 f_evo = 0.0 	 s_b = 0.0
#
# - CosmoParams about the Input Power Spectrum: 
#	 fit_left_min = 1.0e-6 	 fit_right_min = 10.0 	 
#	 fit_left_max = 3.0e-6 	 fit_right_max = 20.0 	 
#
# - CosmoParams about the Input Power Spectrum Tools: 
#	 k_max = 10.0 	 fit_max = 0.5 	 N = 1024 	 
#	 con = true 	 k_min = 1.0e-8 	 fit_min = 0.05 	 
#
# - Computed quantities: 
# 	 effective redshift z_eff = 1.2613556177172356 
# 	 comoving s_min = 2312.577431755554 Mpc/h_0
# 	 comoving s_max = 3054.4830200675647 Mpc/h_0
# 	 comoving s_eff = 2725.87720083235 Mpc/h_0
# 	 Volume of the survey V_survey = 3.378305693005294e10 Mpc^3/h_0^3
# 	 σ_0 = 15.593462966741178
# 	 σ_1 = 15.074895881392285
# 	 σ_2 = 100.85852368830226
# 	 σ_3 = 3735.1226181519773
# 	 σ_4 = 3.415930015488999e6
# 	 (where σ_i = \int_{k_{min}}^{k_{max}}\frac{dq}{2 π^2} q^{2-i} P(q))
# 
# computational time needed (in s) : 0.0751
# kwards passed: 
# 		L = 2
# 		use_windows = false
# 		pr = true
# 		enhancer = 1.0e6
# 		atol_quad = 0.0
# 		rtol_quad = 0.01
# 
# s [Mpc/h_0] 	 	 xi
1.0 	 -1.0286027855444504
1.0176234579394636 	 -1.0218100439287778
1.0355575021486711 	 -1.0150390170076904
1.0538076062316843 	 -1.0082888212260102
1.072379340256395 	 -1.001558844678325
1.0912783724545534 	 -0.9948481988797672
1.1105104709517524 	 -0.9881562240463174
1.1300815055279045 	 -0.9814820378733454
1.1499974494087413 	 -0.9748249240314532
1.1702643810888866 	 -0.9681840111591341
1.190888486187059 	 -0.9615585247064391
1.2118760593339681 	 -0.954947602516003
1.2332335060934831 	 -0.9483504166341019
1.2549673449176588 	 -0.9417661071103234
1.2770842091362153 	 -0.9351938021949521
1.2995908489810806 	 -0.9286326341132451
1.3224941336466105 	 -0.9220816993111693
1.3458010533861189 	 -0.9155401117744748
1.3695187216453548 	 -0.9090069479776304
1.3936543772335797 	 -0.9024812953741755
1.4182153865329048 	 -0.8959622199972141
1.4432092457465677 	 -0.8894487784857726
1.4686435831868272 	 -0.882940032320689
1.4945261616031833 	 -0.8764350080245563
1.520864880551625 	 -0.8699327644566875
1.5476677788056337 	 -0.8634323036627574
1.574943036809678 	 -0.856932680552138
1.6026989791759443 	 -0.8504328823343297
1.6309440772250727 	 -0.8439319568852116
1.6596869515716661 	 -0.8374288886418647
1.6889363747553658 	 -0.830922715553077
1.718701273918297 	 -0.8244124319220737
1.7489907335296988 	 -0.8178970650348966
1.7798139981585708 	 -0.8113756305735568
1.811180475295187 	 -0.8048471482004468
1.8430997382223293 	 -0.7983106642061057
1.8755815289371267 	 -0.7917651984377846
1.908635761124385 	 -0.7852098344216927
1.9422725231823168 	 -0.778643604891914
1.9765020813015959 	 -0.7720656353054969
2.011334882598677 	 -0.7654749879326769
2.0467815583043305 	 -0.7588708344653644
2.0828529270083767 	 -0.7522522856972906
2.119559997961597 	 -0.7456185651713437
2.156913974435843 	 -0.7389688518861728
2.1949262571433543 	 -0.7323024297205428
2.2336084477163447 	 -0.7256185650605061
2.272972352247904 	 -0.7189166146511929
2.3130299848953086 	 -0.7121959503592092
2.353793571546829 	 -0.7054560188385989
2.395275553553164 	 -0.6986963143093733
2.437488591524634 	 -0.691916394484383
2.4804455691952905 	 -0.6851158918929363
2.5241595973551325 	 -0.6782944996367665
2.568644017851614 	 -0.6714520044925008
2.6139124076616764 	 -0.6645882614269748
2.659978583035544 	 -0.6577032285541138
2.706856603713545 	 -0.6507969500170911
2.75456077721725 	 -0.6438695741817264
2.803105663216234 	 -0.6369213609086062
2.8525060779717974 	 -0.6299526697761964
2.9027770988589974 	 -0.6229640010994687
2.953934068968377 	 -0.6159559488986464
3.00599260178879 	 -0.6089292764832848
3.0589685859727536 	 -0.6018848371758174
3.1128781901857843 	 -0.5948236768678764
3.167737868041197 	 -0.5877469329022674
3.223564363121867 	 -0.5806559500227289
3.2803747140904993 	 -0.5735521727547723
3.3381862598899525 	 -0.5664372580879141
3.3970166450352193 	 -0.5593129774179348
3.4568838249986547 	 -0.5521813097085773
3.51780607169013 	 -0.5450443665111547
3.579801979033751 	 -0.5379044541400403
3.6428904686428605 	 -0.5307640297875479
3.7070907955950605 	 -0.5236257277406032
3.7724225543090033 	 -0.5164923465286249
3.838905684524751 	 -0.5093668413749342
3.9065604773895406 	 -0.502252336203924
3.9754075816507863 	 -0.495152091003675
4.045468009958233 	 -0.4880695275283705
4.1167631452771785 	 -0.4810081824852738
4.189314747414704 	 -0.4739717339671343
4.263144959660941 	 -0.4669639527085581
4.338276315547362 	 -0.45998871822671233
4.414731745724182 	 -0.4530499769820968
4.492534584958967 	 -0.44615173983167633
4.571708579258576 	 -0.43929805239726755
4.652277893116625 	 -0.43249297202432535
4.734267116888661 	 -0.42574055008537287
4.817701274297335 	 -0.4190447903456404
4.902605830069813 	 -0.4124096387944622
4.989006697709819 	 -0.40583893172834373
5.076930247406609 	 -0.3993363851310636
5.166403314083369 	 -0.3929055415777665
5.2574532055874235 	 -0.38654975100354627
5.350107711024791 	 -0.3802721282087979
5.444395109241635 	 -0.37407551690731755
5.540344177455178 	 -0.36796246635709134
5.63798420003671 	 -0.36193517597700486
5.737344977449417 	 -0.3559954974639848
5.83845683534369 	 -0.3501448593522611
5.941350633812743 	 -0.34438429725317193
6.046057776811348 	 -0.3387143651847894
6.152610221740549 	 -0.33313519051847884
6.2610404892013065 	 -0.3276463822408274
6.371381672920025 	 -0.3222471066699849
6.4836674498489995 	 -0.31693600404706274
6.597932090444882 	 -0.31171127806585563
6.714210469128275 	 -0.3065706348123198
6.832538074927663 	 -0.3015113781785349
6.952951022310933 	 -0.29653038165876433
7.075486062207781 	 -0.2916241856085035
7.20018059322636 	 -0.2867890060557985
7.327072673067628 	 -0.28202083223833574
7.456201030140828 	 -0.2773154719197458
7.587605075383698 	 -0.2726686478283598
7.721324914290984 	 -0.26807607414690837
7.857401359154923 	 -0.2635335506073692
7.995875941521473 	 -0.25903705918733655
8.136790924866046 	 -0.2545828542822871
8.280189317492631 	 -0.2501675639752077
8.426114885660258 	 -0.24578827257179142
8.574612166940781 	 -0.24144260865828154
8.725726483812073 	 -0.23712881278708733
8.879503957490801 	 -0.23284579502530675
9.035991522008938 	 -0.22859317699812864
9.195236938538413 	 -0.22437130481495499
9.357288809968146 	 -0.2201812527681579
9.522196595738032 	 -0.21602478298860534
9.690010626934324 	 -0.21190429943155253
9.860782121651058 	 -0.20782275329096028
10.03456320062219 	 -0.20378354130980555
10.211406903129243 	 -0.19979036549426554
10.391367203189287 	 -0.195847079336736
10.574499026028219 	 -0.19195752105013258
10.760858264844325 	 -0.1881253235727555
10.950501797867338 	 -0.18435375100497592
11.14348750571807 	 -0.18064550094276902
11.33987428907403 	 -0.17700258133266972
11.539722086646336 	 -0.17342614327005443
11.743091893473444 	 -0.1699164368990597
11.950045779537328 	 -0.16647271527494897
12.160646908707667 	 -0.16309329984863682
12.374959558019944 	 -0.15977558735451747
12.59304913729327 	 -0.15651623607595078
12.814982209093962 	 -0.1533112861240272
13.040826509050902 	 -0.1501564481300384
13.270650966529 	 -0.1470473146355985
13.504525725666925 	 -0.14397969813626343
13.742522166785617 	 -0.14094987506847897
13.984712928174115 	 -0.137954890228266
14.231171928259263 	 -0.13499274762356475
14.481974388166215 	 -0.13206258663833303
14.73719685467645 	 -0.12916473111473079
14.996917223590433 	 -0.12630066206046256
15.261214763501995 	 -0.12347286953598668
15.530170139991698 	 -0.12068460312560937
15.803865440246554 	 -0.11793954079827311
16.08238419811368 	 -0.11524138272765266
16.365811419595428 	 -0.11259343930084684
16.65423360879386 	 -0.10999821784968226
16.947738794312446 	 -0.10745710080802544
17.246416556123023 	 -0.10497011512068294
17.550358052906326 	 -0.10253587522949702
17.859656049874243 	 -0.10015167981942376
18.174404947082486 	 -0.09781380225793394
18.49470080824217 	 -0.09551791769772695
18.8206413900392 	 -0.09325965010543763
19.15232617197028 	 -0.09103514042184918
19.489856386704883 	 -0.08884158164251901
19.83333505098216 	 -0.08667760060717572
20.182866997052432 	 -0.08454345118387076
20.53855890467278 	 -0.08244091881381002
20.900519333666473 	 -0.08037299257551497
21.26885875705629 	 -0.07834326044352492
21.64368959478166 	 -0.07635521901413819
22.025126248010096 	 -0.07441149828181642
22.413285134053275 	 -0.07251329620374686
22.808284721898477 	 -0.0706599887848189
23.21024556836616 	 -0.06884920338277156
23.619290354904884 	 -0.06707717377313133
24.035543925034524 	 -0.06533953810590783
24.459133322449496 	 -0.06363220413420659
24.89018782979343 	 -0.06195230237251163
25.32883900811714 	 -0.0602987705659146
25.775220737032132 	 -0.05867259711142734
26.229469255571605 	 -0.05707643094421911
26.69172320377162 	 -0.055513789694975155
27.162123664985092 	 -0.05398791011976114
27.640814208941478 	 -0.05250067863666039
28.12794093556528 	 -0.051051889536474805
28.623652519566928 	 -0.04963915545517684
29.128100255819334 	 -0.048258531002789345
29.64143810553424 	 -0.046905685281265645
30.16382274325235 	 -0.04557729601193905
30.69541360466149 	 -0.044272096704261535
31.236372935257677 	 -0.04299125351990007
31.786865839863584 	 -0.04173773929956804
32.34706033301979 	 -0.04051502766757207
32.91712739026405 	 -0.039325431430871104
33.49724100031435 	 -0.03816896205736889
34.08757821817146 	 -0.03704307067791685
34.68831921915758 	 -0.035943664462852444
35.29964735390708 	 -0.03486680344350189
35.92174920432655 	 -0.03381050198873028
36.554814640540975 	 -0.0327754990602613
37.19903687884344 	 -0.03176473036374993
37.85461254066628 	 -0.030781459198277607
38.5217417125914 	 -0.029827264237985318
39.20062800741813 	 -0.028900800906443765
39.89147862630742 	 -0.02799841775743303
40.594504422021174 	 -0.027116094120451985
41.30991996327603 	 -0.02625185241740552
42.03794360023143 	 -0.02540673397172527
42.778797531131644 	 -0.024583912261939775
43.532707870122366 	 -0.023786062997423182
44.29990471626244 	 -0.02301320370396345
45.08062222375173 	 -0.022262267060409926
45.87509867339686 	 -0.021529295685138755
46.68357654533621 	 -0.020812224940164235
47.50630259304667 	 -0.020112393800649473
48.34352791865465 	 -0.019432966798557754
49.195508049574364 	 -0.018775868409641072
50.06250301649657 	 -0.01813959067816411
50.94477743275206 	 -0.017520339692413917
51.8426005750735 	 -0.01691534891845583
52.75624646578071 	 -0.01632533464180424
53.68599395641439 	 -0.015753361979310484
54.63212681284355 	 -0.015201136124565319
55.59493380187314 	 -0.01466676973490852
56.5747087793777 	 -0.014146482055231472
57.57175077998846 	 -0.013638771458949421
58.58636410836086 	 -0.013145692116464259
59.618858432050686 	 -0.012670008296124444
60.66954887602675 	 -0.01221101047760632
61.738756118849636 	 -0.011765280467583362
62.826806490544975 	 -0.01133076076748218
63.93403207220191 	 -0.010909502389703023
65.0607707973267 	 -0.010503963216536998
66.20736655498246 	 -0.010113182867234102
67.37416929474684 	 -0.009733632478963129
68.5615351335191 	 -0.009364775958352172
69.76982646420971 	 -0.00900925487846978
70.99941206634539 	 -0.008668236713509381
72.25066721862329 	 -0.008338710913501848
73.52397381344888 	 -0.008018696431969612
74.81972047349241 	 -0.00771011649777654
76.13830267029941 	 -0.007414626499550532
77.48012284499157 	 -0.007129420443417936
78.84559053109479 	 -0.0068519060989550365
80.2351224795317 	 -0.006583203438866219
81.64914278581742 	 -0.0063232651829008115
83.08808301949652 	 -0.006067267682405751
84.55238235586127 	 -0.0058109518831487164
86.04248770999126 	 -0.0055523063202768735
87.5588538731551 	 -0.005285505368343227
89.10194365161628 	 -0.005002077667996082
90.67222800788498 	 -0.004698557565664837
92.27018620445939 	 -0.004375852406987135
93.89630595010014 	 -0.004037311840908332
95.55108354868277 	 -0.003695606220834273
97.23502405067315 	 -0.0033718075103075554
98.9486414072729 	 -0.0030854699189572306
100.69245862728103 	 -0.0028532010226019785
102.46700793672014 	 -0.002686495357261547
104.27283094127554 	 -0.0025836781582213517
106.11047879159794 	 -0.0025342061782351096
107.98051235151794 	 -0.0025249524275358618
109.8835023692267 	 -0.002537583819722511
111.82002965147176 	 -0.002556838072766902
113.79068524082398 	 -0.0025726438347282846
115.79607059606842 	 -0.0025758327102437233
117.83679777577332 	 -0.002563420645774433
119.91348962509578 	 -0.0025349000664271607
122.026779965878 	 -0.0024894183020207337
124.17731379009476 	 -0.0024313448292195916
126.36574745671011 	 -0.0023608549897128845
128.59274889200225 	 -0.0022822235396024325
130.8589977934205 	 -0.0021968324348992244
133.16518583703325 	 -0.0021072211806399425
135.51201688863299 	 -0.002015480319107416
137.90020721856175 	 -0.0019224600455399136
140.3304857203213 	 -0.0018301230545306238
142.80359413303793 	 -0.0017386822826442791
145.32028726784566 	 -0.0016495598113312954
147.88133323826136 	 -0.0015626494503983704
150.48751369461772 	 -0.0014787663292117764
153.13962406262917 	 -0.0013979680457728272
155.83847378616224 	 -0.0013205176190711227
158.58488657428276 	 -0.0012463684557273537
161.37970065265932 	 -0.001175637141155878
164.22376901939475 	 -0.001108307064824396
167.11795970536812 	 -0.0010442595176811307
170.06315603916474 	 -0.000983436935915444
173.06025691667327 	 -0.0009258132364971928
176.1101770754371 	 -0.0008712090465361237
179.2138473738376 	 -0.0008193664680882112
182.3722150751998 	 -0.0007702930447867444
185.58624413690444 	 -0.0007237786595947609
188.85691550459407 	 -0.0006796826900968299
192.1852274115662 	 -0.0006381089250199262
195.57219568344027 	 -0.0005991576821032405
199.01885404819578 	 -0.0005627226820567333
202.5262544516745 	 -0.0005288104634177213
206.09546737864056 	 -0.0004973048009335102
209.7275821795022 	 -0.0004676924993375509
213.42370740278793 	 -0.0004397561050630371
217.18497113348542 	 -0.0004133439594253295
221.0125213373401 	 -0.00038812186427715983
224.90752621122337 	 -0.00036413423167309055
228.87117453967576 	 -0.00034145352402398363
232.90467605773122 	 -0.0003198910201495879
237.00926182013913 	 -0.00029957444015082615
241.18618457708976 	 -0.00028055787426585905
245.43671915656367 	 -0.0002625940094532298
249.7621628534194 	 -0.00024582454393376084
254.16383582533592 	 -0.00023016563851280475
258.64308149573657 	 -0.00021538134997058762
263.20126696381004 	 -0.00020166580180120682
267.8397834217601 	 -0.00018878487434557655
272.56004657940866 	 -0.0001766628360591803
277.36349709627893 	 -0.00016544141819707926
282.25160102129786 	 -0.00015483374874876666
287.22585024024306 	 -0.0001449119764384032
292.2877629310785 	 -0.00013571582761715673
297.4388840273143 	 -0.00012697077182026212
302.6807856895305 	 -0.00011886147478358496
308.0150677852139 	 -0.000111283082163565
313.44335837704745 	 -0.00010409258766397456
318.9673142198097 	 -9.746340241900296e-5
324.5886212660263 	 -9.120095347637619e-5
330.30899518053633 	 -8.531403854795604e-5
336.13018186412717 	 -7.986852162106569e-5
342.05395798639364 	 -7.470320652745996e-5
348.082131527994 	 -6.990916000776917e-5
354.2165423324566 	 -6.539701716055822e-5
360.45906266771465 	 -6.11746344187408e-5
366.81159779753773 	 -5.7240639612511813e-5
373.2760865630298 	 -5.350686752188961e-5
379.8545019743811 	 -5.0102597629213304e-5
386.5488518130427 	 -4.678773639808328e-5
393.36117924451753 	 -4.381267816626689e-5
400.2935634419512 	 -4.095440323301118e-5
407.3481202207082 	 -3.825526401489689e-5
414.5270026841376 	 -3.585293296587841e-5
421.8324018807136 	 -3.34239203497679e-5
429.266547472761 	 -3.1316920958477634e-5
436.8317084169661 	 -2.9251386233446753e-5
444.53019365687624 	 -2.733209798967227e-5
452.36435282761 	 -2.5568985900781275e-5
460.3365769729802 	 -2.388047261826057e-5
468.4492992752599 	 -2.233111586176947e-5
476.7049957978088 	 -2.0849020447312425e-5
485.10618624078336 	 -1.9520254665124566e-5
493.65543471017156 	 -1.8182328762494767e-5
502.3553505003736 	 -1.70565643476625e-5
511.2085888905816 	 -1.5873446742938512e-5
520.2178519551875 	 -1.486937180653416e-5
529.3858893884775 	 -1.3882729200154654e-5
538.7154993438611 	 -1.294913545172576e-5
548.2095292878844 	 -1.2127099387344877e-5
557.8708768693028 	 -1.1300085315875946e-5
567.7024908034608 	 -1.056696032930984e-5
577.707371772264 	 -9.86968766797945e-6
587.8885733400108 	 -9.210657504451318e-6
598.2492028853594 	 -8.605660066947204e-6
608.7924225497273 	 -8.036317947074394e-6
619.5214502023969 	 -7.502513355037189e-6
630.4395604226339 	 -7.000621764336284e-6
641.5500854991163 	 -6.5528713119153235e-6
652.8564164469689 	 -6.087747889096758e-6
664.3620040427313 	 -5.723631686070446e-6
676.0703598775564 	 -5.300964680390023e-6
687.985057428976 	 -4.985014717238842e-6
700.1097331515554 	 -4.628015701012665e-6
712.4480875867604 	 -4.333803454495372e-6
725.0038864923972 	 -4.039386872950507e-6
737.7809619919432 	 -3.773333997376825e-6
750.7832137441454 	 -3.5174144256290055e-6
764.014610133221 	 -3.290276702191855e-6
777.479189480039 	 -3.0617332099312216e-6
791.1810612746491 	 -2.865343846742596e-6
805.1244074305225 	 -2.669950277587581e-6
819.3134835609102 	 -2.490170290732827e-6
833.7526202776816 	 -2.330447467022811e-6
848.4462245130624 	 -2.164547111700896e-6
863.3987808646654 	 -2.0308529141396944e-6
878.6148529642173 	 -1.885561243810313e-6
894.0990848704206 	 -1.7659215796268395e-6
909.8562024863477 	 -1.6442965789720865e-6
925.8910150018253 	 -1.535435919019866e-6
942.2084163612376 	 -1.4321099933938978e-6
958.8133867571879 	 -1.3370864161756957e-6
975.7109941504982 	 -1.2457848390893454e-6
992.9063958169821 	 -1.1645985012370587e-6
1010.4048399214864 	 -1.0843971042593012e-6
1028.2116671196736 	 -1.0129262893603914e-6
1046.3323121880223 	 -9.449799299167799e-7
1064.77230568257 	 -8.804203473926931e-7
1083.5372756268719 	 -8.23319122601064e-7
1102.6329492297234 	 -7.660222147764081e-7
1122.0651546331405 	 -7.162050761812972e-7
1141.8398226911547 	 -6.672932226546959e-7
1161.9629887799572 	 -6.226149634235148e-7
1182.4407946399335 	 -5.810921239384057e-7
1203.2794902501767 	 -5.419198822543893e-7
1224.4854357360205 	 -5.051573136869098e-7
1246.0651033101992 	 -4.723109070060191e-7
1268.0250792482202 	 -4.3881388177028747e-7
1290.3720658985355 	 -4.1160222577573917e-7
1313.1128837281576 	 -3.8159356954334103e-7
1336.254473404309 	 -3.5809480797453165e-7
1359.8038979127691 	 -3.32325229745776e-7
1383.768344713554 	 -3.1113063077358367e-7
1408.1551279345736 	 -2.8967771044845094e-7
1432.9716906039691 	 -2.703352632721267e-7
1458.2256069217708 	 -2.5231212754990136e-7
1483.9245845716043 	 -2.3512029346485574e-7
1510.0764670731387 	 -2.194985493793681e-7
1536.6892361759749 	 -2.0472207042857672e-7
1563.7710142957494 	 -1.9079368343531103e-7
1591.3300669931418 	 -1.7832480074616876e-7
1619.3748054966 	 -1.659188008642093e-7
1647.9137892694969 	 -1.551789953655623e-7
1676.9557286225488 	 -1.4438920571041478e-7
1706.5094873722715 	 -1.349279553311803e-7
1736.5840855462714 	 -1.2580153034774905e-7
1767.1887021362386 	 -1.1725688303924238e-7
1798.3326778994324 	 -1.0957209346265997e-7
1830.025518209555 	 -1.0195660347105206e-7
1862.2768959578668 	 -9.534417537330228e-8
1895.0966545054139 	 -8.876958129854729e-8
1928.494810687309 	 -8.29123621724303e-8
1962.4815578699313 	 -7.73026263249408e-8
1997.0672690620238 	 -7.20388277115539e-8
2032.2625000806186 	 -6.738998650379403e-8
2068.077992772737 	 -6.261068996620199e-8
2104.524678293899 	 -5.865310002973173e-8
2141.6136804443754 	 -5.448791352355269e-8
2179.3563190642653 	 -5.105125815347718e-8
2217.7641134883993 	 -4.7391861916362055e-8
2256.8487860621126 	 -4.4444473417873606e-8
2296.6222657190083 	 -4.1216339947056555e-8
2337.0966916217417 	 -3.870188492291096e-8
2378.2844168669976 	 -3.586235409767208e-8
2420.198012255736 	 -3.365494534843188e-8
2462.8502701298967 	 -3.1246545239450615e-8
2506.2542082767286 	 -2.924445522748527e-8
2550.4230739018953 	 -2.7240598177995685e-8
2595.370347672644 	 -2.54049288650409e-8
2641.109747832185 	 -2.3739689627932374e-8
2687.655234386611 	 -2.2079066786296605e-8
2735.0210133656037 	 -2.069090200853035e-8
2783.2215411581997 	 -1.9192503083174727e-8
2832.2715289250114 	 -1.8008055379873266e-8
2882.1859470881627 	 -1.6720825176721346e-8
2932.9800299003823 	 -1.5639334315307355e-8
2984.6692800946194 	 -1.4589768518990382e-8
3037.269473615574 	 -1.358566720751965e-8
3090.796664434656 	 -1.2700468376034288e-8
3145.267189449756 	 -1.1842854556841723e-8
3200.6976734713967 	 -1.1026674985368974e-8
3257.10503429676 	 -1.0331985110284409e-8
3314.506487873102 	 -9.590516042970009e-9
3372.919553552214 	 -8.977283099518972e-9
3432.362059437434 	 -8.378709413316852e-9
3492.8521478249413 	 -7.782777762032802e-9
3554.408280740901 	 -7.309344292078919e-9
3617.049245576217 	 -6.780071834892607e-9
3680.7941608205992 	 -6.33652246412197e-9
3745.662481897642 	 -5.933317143351374e-9
3811.6740071027934 	 -5.493467084030879e-9
3878.848883645918 	 -5.1668867559128784e-9
3947.2076138003845 	 -4.797481288906448e-9
4016.7710611605276 	 -4.473151918130869e-9
4087.560457009342 	 -4.195053335317012e-9
4159.5974067984625 	 -3.889310250462449e-9
4232.903896742278 	 -3.640085971204135e-9
4307.502300528305 	 -3.4051997793397705e-9
4383.41538614581 	 -3.150773614648237e-9
4460.666322834745 	 -2.9718341333060395e-9
4539.278688157207 	 -2.7470154655495704e-9
4619.276475193451 	 -2.5745558922673016e-9
4700.684099864773 	 -2.403963003134014e-9
4783.526408385447 	 -2.2340160114559226e-9
4867.828684845938 	 -2.0918267759205296e-9
4953.616658929837 	 -1.95132574127497e-9
5040.9165137667105 	 -1.8128600551367479e-9
5129.7548939234275 	 -1.7037380641443996e-9
5220.1589135362465 	 -1.5777830964539926e-9
5312.156164586265 	 -1.4795122045826969e-9
5405.774725320715 	 -1.3784388609665594e-9
5501.043168822617 	 -1.2841574469660327e-9
5597.990571731539 	 -1.2010778061738512e-9
5696.646523117965 	 -1.1191683522432949e-9
5797.0411335141225 	 -1.0432690208305663e-9
5899.205044103951 	 -9.760478107946115e-10
6003.169436074985 	 -9.077696400867697e-10
6108.966040135128 	 -8.487563157515837e-10
