# This is an integration map on mu of the ξ multipole auto_localgp GR effect.
# The following parameters were used for this computation: 
# CLASS Power Spectrum input file : "../test/datatest/file_pk.txt"
# F window function input file : "../test/datatest/F_REFERENCE.txt"
# CLASS Background input file: "../test/datatest/WideA_ZA_background.dat"
# 	 z_min = 0.05 	 z_max = 0.2
# 	 k_min = 1.0e-8 	 k_max = 10.0
# 	 h_0 = 0.7 	 Ω_b = 0.0489 	 Ω_cdm = 0.25102 	 Ω_M0 = 0.29992
# 	 comoving s_min = 148.1920001465757 Mpc/h_0
# 	 comoving s_max = 571.7022420258767 Mpc/h_0
# 	 comoving s_eff = 435.3747095690664 Mpc/h_0
# 	 comoving z_eff = 0.15045636096023224 
# 	 Volume of the survey V_survey = 3.845366167995967e8
# 	 σ_0 = 15.593462966741178
# 	 σ_1 = 15.074895881392285
# 	 σ_2 = 100.85852368830221
# 	 σ_3 = 3735.1227501923527
# 
# computational time needed (in s) : 0.3906
# kwards passed: 
# 		use_windows = false
# 		L = 0
# 		μ_atol = 0.0
# 		enhancer = 1.0e8
# 		N_μs = 30
# 		N_log = 100
# 		μ_rtol = 0.01
# 
# s [Mpc/h_0] 	 	 xi
0.1 	 -1.373746867379862e-14
0.10974987654930562 	 -1.6546268813839223e-14
0.12045035402587821 	 -1.99294044634559e-14
0.1321941148466029 	 -2.4004150396057437e-14
0.14508287784959398 	 -2.8911847685719054e-14
0.1592282793341092 	 -3.482270145327579e-14
0.17475284000076838 	 -4.194167138483518e-14
0.19179102616724888 	 -5.0515558376917684e-14
0.21049041445120203 	 -6.084153302442888e-14
0.23101297000831597 	 -7.327739728515831e-14
0.2535364493970112 	 -8.825392938014403e-14
0.2782559402207124 	 -1.0628973288016414e-13
0.30538555088334157 	 -1.2800909556163887e-13
0.3351602650938842 	 -1.54163459835155e-13
0.3678379771828633 	 -1.8565723178918164e-13
0.40370172585965547 	 -2.2357879431203921e-13
0.44306214575838804 	 -2.692377629722557e-13
0.4862601580065353 	 -3.2420972500567337e-13
0.533669923120631 	 -3.903899405435769e-13
0.5857020818056666 	 -4.700577730634408e-13
0.6428073117284321 	 -5.659539516187166e-13
0.7054802310718643 	 -6.813731663578892e-13
0.7742636826811271 	 -8.20274968648911e-13
0.8497534359086443 	 -9.874164967426018e-13
0.9326033468832199 	 -1.188511197659513e-12
1.0235310218990261 	 -1.4304184591310632e-12
1.1233240329780274 	 -1.7213700027157458e-12
1.2328467394420661 	 -2.0712397359403253e-12
1.353047774579807 	 -2.4918652312120606e-12
1.484968262254465 	 -2.997430052238989e-12
1.6297508346206442 	 -3.604917914695686e-12
1.788649529057435 	 -4.334651328865261e-12
1.9630406500402708 	 -5.210929451807398e-12
2.154434690031884 	 -6.262782140654056e-12
2.3644894126454075 	 -7.52485971298768e-12
2.595024211399736 	 -9.0384807042759e-12
2.8480358684358014 	 -1.085286313819178e-11
3.1257158496882362 	 -1.3026568021133927e-11
3.4304692863149184 	 -1.5629187389962578e-11
3.7649358067924683 	 -1.8743312049508654e-11
4.132012400115337 	 -2.246681929526748e-11
4.534878508128582 	 -2.691552019890153e-11
4.977023564332112 	 -3.22262123005349e-11
5.462277217684341 	 -3.856018010202273e-11
5.99484250318941 	 -4.610719153187373e-11
6.579332246575681 	 -5.509003053745501e-11
7.220809018385464 	 -6.576961415005358e-11
7.924828983539173 	 -7.845073623854557e-11
8.697490026177835 	 -9.348848195817818e-11
9.54548456661834 	 -1.1129533915888053e-10
10.476157527896646 	 -1.3234901486964915e-10
11.497569953977356 	 -1.5720091555364724e-10
12.618568830660204 	 -1.864852259664434e-10
13.848863713938732 	 -2.209285165683517e-10
15.199110829529339 	 -2.6135981724143754e-10
16.68100537200059 	 -3.0872101525197903e-10
18.30738280295368 	 -3.640772582888881e-10
20.09233002565047 	 -4.2862706280424964e-10
22.051307399030456 	 -5.037119166261839e-10
24.20128264794382 	 -5.90824908453938e-10
26.560877829466868 	 -6.916177974465715e-10
29.150530628251772 	 -8.079061346889321e-10
31.992671377973828 	 -9.416717594435631e-10
35.11191734215131 	 -1.0950622030903464e-9
38.53528593710529 	 -1.2703852564640628e-9
42.29242874389499 	 -1.4701016160212959e-9
46.4158883361278 	 -1.696809025374879e-9
50.94138014816378 	 -1.9532237480102476e-9
55.90810182512222 	 -2.2421554127959086e-9
61.35907273413173 	 -2.5664765876959516e-9
67.34150657750821 	 -2.929087786801342e-9
73.90722033525779 	 -3.3328790528296896e-9
81.11308307896873 	 -3.780691848054584e-9
89.02150854450383 	 -4.275291140093266e-9
97.70099572992251 	 -4.819339445607189e-9
107.22672220103232 	 -5.415227324401468e-9
117.68119524349979 	 -6.064469998620339e-9
129.1549665014884 	 -6.767220829670015e-9
141.74741629268047 	 -7.522517376961919e-9
155.56761439304722 	 -8.328734762417708e-9
170.73526474706904 	 -9.183868999871748e-9
187.3817422860385 	 -1.0085671473628117e-8
205.65123083486515 	 -1.1031710556115444e-8
225.7019719633919 	 -1.201938649337018e-8
247.70763559917114 	 -1.3045950913736427e-8
271.85882427329403 	 -1.4108537244764554e-8
298.364724028334 	 -1.5204155856193888e-8
327.45491628777285 	 -1.6329710419621374e-8
359.38136638046257 	 -1.7481430814963457e-8
394.4206059437656 	 -1.8655619935556304e-8
432.8761281083057 	 -1.9803938663583273e-8
475.0810162102798 	 -1.8901967372032917e-8
521.4008287999684 	 -1.7764023231671194e-8
572.236765935022 	 -1.657844153018671e-8
628.0291441834253 	 -1.5350607399173167e-8
689.2612104349695 	 -1.4085164244614383e-8
756.463327554629 	 -1.2785395520181708e-8
830.2175681319744 	 -1.1453870195390365e-8
911.1627561154896 	 -1.0092372317337636e-8
1000.0 	 -8.70191753207559e-9
