# This is an integration map on mu of the ξ multipole auto_integratedgp GR effect.
# The following parameters were used for this computation: 
# CLASS Power Spectrum input file : "../test/datatest/file_pk.txt"
# F window function input file : "../test/datatest/F_REFERENCE.txt"
# CLASS Background input file: "../test/datatest/WideA_ZA_background.dat"
# 	 z_min = 0.05 	 z_max = 0.2
# 	 k_min = 1.0e-8 	 k_max = 10.0
# 	 h_0 = 0.7 	 Ω_b = 0.0489 	 Ω_cdm = 0.25102 	 Ω_M0 = 0.29992
# 	 comoving s_min = 148.1920001465757 Mpc/h_0
# 	 comoving s_max = 571.7022420258767 Mpc/h_0
# 	 comoving s_eff = 435.3747095690664 Mpc/h_0
# 	 comoving z_eff = 0.15045636096023224 
# 	 Volume of the survey V_survey = 3.845366167995967e8
# 	 σ_0 = 15.593462966741178
# 	 σ_1 = 15.074895881392285
# 	 σ_2 = 100.85852368830221
# 	 σ_3 = 3735.1227501923527
# 
# computational time needed (in s) : 2.5273
# kwards passed: 
# 		use_windows = false
# 		L = 0
# 		en = 1.0e12
# 		N_χs = 30
# 		μ_atol = 0.0
# 		enhancer = 1.0e8
# 		N_μs = 30
# 		N_log = 100
# 		μ_rtol = 0.01
# 
# s [Mpc/h_0] 	 	 xi
0.1 	 -3.491521998028704e-10
0.10974987654930562 	 -3.491522098860394e-10
0.12045035402587821 	 -3.491522220311243e-10
0.1321941148466029 	 -3.491522366597376e-10
0.14508287784959398 	 -3.4915225427968403e-10
0.1592282793341092 	 -3.4915227550258236e-10
0.17475284000076838 	 -3.4915230106507304e-10
0.19179102616724888 	 -3.491523318543861e-10
0.21049041445120203 	 -3.4915236893906563e-10
0.23101297000831597 	 -3.491524136060623e-10
0.2535364493970112 	 -3.491524674052858e-10
0.2782559402207124 	 -3.49152532203344e-10
0.30538555088334157 	 -3.4915261024825993e-10
0.3351602650938842 	 -3.491527042474386e-10
0.3678379771828633 	 -3.491528174615597e-10
0.40370172585965547 	 -3.491529538176336e-10
0.44306214575838804 	 -3.4915311804505413e-10
0.4862601580065353 	 -3.4915331583944637e-10
0.533669923120631 	 -3.491535540597813e-10
0.5857020818056666 	 -3.491538409656901e-10
0.6428073117284321 	 -3.491541865031888e-10
0.7054802310718643 	 -3.4915460264846306e-10
0.7742636826811271 	 -3.4915510382147615e-10
0.8497534359086443 	 -3.491557073837637e-10
0.9326033468832199 	 -3.4915643423851237e-10
1.0235310218990261 	 -3.49157312509422e-10
1.1233240329780274 	 -3.4915836718864046e-10
1.2328467394420661 	 -3.49159637227554e-10
1.353047774579807 	 -3.491611665581528e-10
1.484968262254465 	 -3.491630080576727e-10
1.6297508346206442 	 -3.491652253679255e-10
1.788649529057435 	 -3.49167895078844e-10
1.9630406500402708 	 -3.49171109356438e-10
2.154434690031884 	 -3.491749791010558e-10
2.3644894126454075 	 -3.491796377388302e-10
2.595024211399736 	 -3.4918524576816714e-10
2.8480358684358014 	 -3.491919962187631e-10
3.1257158496882362 	 -3.492001212161741e-10
3.4304692863149184 	 -3.4920989985618043e-10
3.7649358067924683 	 -3.492216676386162e-10
4.132012400115337 	 -3.492358277421127e-10
4.534878508128582 	 -3.492528646200525e-10
4.977023564332112 	 -3.4927336021032344e-10
5.462277217684341 	 -3.4929801337199225e-10
5.99484250318941 	 -3.493276630851518e-10
6.579332246575681 	 -3.493633161677202e-10
7.220809018385464 	 -3.4940618035224176e-10
7.924828983539173 	 -3.494577036981783e-10
8.697490026177835 	 -3.495196214099059e-10
9.54548456661834 	 -3.495940115598049e-10
10.476157527896646 	 -3.4968336109023434e-10
11.497569953977356 	 -3.497906439578014e-10
12.618568830660204 	 -3.49919412988777e-10
13.848863713938732 	 -3.5007390774606503e-10
15.199110829529339 	 -3.502591805546723e-10
16.68100537200059 	 -3.5048124319739403e-10
18.30738280295368 	 -3.507472362397904e-10
20.09233002565047 	 -3.5106562306307756e-10
22.051307399030456 	 -3.51446415867398e-10
24.20128264794382 	 -3.519014359899279e-10
26.560877829466868 	 -3.5244461463026304e-10
29.150530628251772 	 -3.5309233300194686e-10
31.992671377973828 	 -3.5386380821748805e-10
35.11191734215131 	 -3.547815210800625e-10
38.53528593710529 	 -3.5587168294441517e-10
42.29242874389499 	 -3.57164755003786e-10
46.4158883361278 	 -3.586960232806228e-10
50.94138014816378 	 -3.6050622299177325e-10
55.90810182512222 	 -3.626421955985211e-10
61.35907273413173 	 -3.6515758360834235e-10
67.34150657750821 	 -3.681135516184816e-10
73.90722033525779 	 -3.7157953552734136e-10
81.11308307896873 	 -3.756339823842413e-10
89.02150854450383 	 -3.8036507311810763e-10
97.70099572992251 	 -3.8587140022141734e-10
107.22672220103232 	 -3.9226254340013324e-10
117.68119524349979 	 -3.9965940375956397e-10
129.1549665014884 	 -4.0819423880970285e-10
141.74741629268047 	 -4.1801048574223845e-10
155.56761439304722 	 -4.292626483759674e-10
170.73526474706904 	 -4.42116329286463e-10
187.3817422860385 	 -4.5674848645514943e-10
205.65123083486515 	 -4.733479021611608e-10
225.7019719633919 	 -4.921159849190493e-10
247.70763559917114 	 -5.132678121716891e-10
271.85882427329403 	 -5.370337172058397e-10
298.364724028334 	 -5.636614055302018e-10
327.45491628777285 	 -5.934188582913613e-10
359.38136638046257 	 -6.265982852224401e-10
394.4206059437656 	 -6.635219973127482e-10
432.8761281083057 	 -7.045521784240222e-10
475.0810162102798 	 -7.500731804133809e-10
521.4008287999684 	 -8.004190971207839e-10
572.236765935022 	 -8.559093594018662e-10
628.0291441834253 	 -9.16895438257197e-10
689.2612104349695 	 -9.83767309465226e-10
756.463327554629 	 -1.0569544264326712e-9
830.2175681319744 	 -1.1369244333112662e-9
911.1627561154896 	 -1.2241798259114994e-9
1000.0 	 -1.3192524151509415e-9
