# This is an integration map on mu of the ξ multipole doppler_lensing GR effect.
# The following parameters were used for this computation: 
# CLASS Power Spectrum input file : "../test/datatest/file_pk.txt"
# F window function input file : "../test/datatest/F_REFERENCE.txt"
# CLASS Background input file: "../test/datatest/WideA_ZA_background.dat"
# 	 z_min = 0.05 	 z_max = 0.2
# 	 k_min = 1.0e-8 	 k_max = 10.0
# 	 h_0 = 0.7 	 Ω_b = 0.0489 	 Ω_cdm = 0.25102 	 Ω_M0 = 0.29992
# 	 comoving s_min = 148.1920001465757 Mpc/h_0
# 	 comoving s_max = 571.7022420258767 Mpc/h_0
# 	 comoving s_eff = 435.3747095690664 Mpc/h_0
# 	 comoving z_eff = 0.15045636096023224 
# 	 Volume of the survey V_survey = 3.845366167995967e8
# 	 σ_0 = 15.593462966741178
# 	 σ_1 = 15.074895881392285
# 	 σ_2 = 100.85852368830221
# 	 σ_3 = 3735.1227501923527
# 
# computational time needed (in s) : 0.9676
# kwards passed: 
# 		use_windows = false
# 		L = 0
# 		en = 1.0e12
# 		N_χs = 30
# 		μ_atol = 0.0
# 		enhancer = 1.0e8
# 		N_μs = 30
# 		N_log = 100
# 		μ_rtol = 0.01
# 
# s [Mpc/h_0] 	 	 xi
0.1 	 -1.7709932844925038e-7
0.10974987654930562 	 -1.7709916157579195e-7
0.12045035402587821 	 -1.77098960576554e-7
0.1321941148466029 	 -1.77098718472912e-7
0.14508287784959398 	 -1.7709842685926606e-7
0.1592282793341092 	 -1.7709807561128965e-7
0.17475284000076838 	 -1.7709765253451312e-7
0.19179102616724888 	 -1.7709714294123537e-7
0.21049041445120203 	 -1.7709652914094533e-7
0.23101297000831597 	 -1.7709578982663866e-7
0.2535364493970112 	 -1.7709489933562022e-7
0.2782559402207124 	 -1.770938267595528e-7
0.30538555088334157 	 -1.7709253487248379e-7
0.3351602650938842 	 -1.7709097884013707e-7
0.3678379771828633 	 -1.7708910466578548e-7
0.40370172585965547 	 -1.7708684731906599e-7
0.44306214575838804 	 -1.770841284830329e-7
0.4862601580065353 	 -1.7708085384396983e-7
0.533669923120631 	 -1.7707690983130742e-7
0.5857020818056666 	 -1.7707215969351324e-7
0.6428073117284321 	 -1.7706643877587472e-7
0.7054802310718643 	 -1.7705954883938895e-7
0.7742636826811271 	 -1.770512512312176e-7
0.8497534359086443 	 -1.770412586892869e-7
0.9326033468832199 	 -1.7702922549038878e-7
1.0235310218990261 	 -1.7701461143824253e-7
1.1233240329780274 	 -1.7699713876820936e-7
1.2328467394420661 	 -1.7697610150286216e-7
1.353047774579807 	 -1.7695077453735403e-7
1.484968262254465 	 -1.769202862208941e-7
1.6297508346206442 	 -1.7688358919436812e-7
1.788649529057435 	 -1.7683942551924622e-7
1.9630406500402708 	 -1.7678628529397248e-7
2.154434690031884 	 -1.7672235752345668e-7
2.3644894126454075 	 -1.7664547187898165e-7
2.595024211399736 	 -1.765530302131722e-7
2.8480358684358014 	 -1.7644192624234148e-7
3.1257158496882362 	 -1.7630845187487096e-7
3.4304692863149184 	 -1.761481890911773e-7
3.7649358067924683 	 -1.7595588639915742e-7
4.132012400115337 	 -1.75725319847267e-7
4.534878508128582 	 -1.754491397001137e-7
4.977023564332112 	 -1.7511870669949697e-7
5.462277217684341 	 -1.7472392580148792e-7
5.99484250318941 	 -1.742530911745147e-7
6.579332246575681 	 -1.736927679036405e-7
7.220809018385464 	 -1.7302774816450822e-7
7.924828983539173 	 -1.722411448155745e-7
8.697490026177835 	 -1.7131470970298173e-7
9.54548456661834 	 -1.7022951159406845e-7
10.476157527896646 	 -1.6896717094022093e-7
11.497569953977356 	 -1.6751196754388865e-7
12.618568830660204 	 -1.6585414442123284e-7
13.848863713938732 	 -1.639941138313423e-7
15.199110829529339 	 -1.6195668436986638e-7
16.68100537200059 	 -1.597844055413882e-7
18.30738280295368 	 -1.574567399183503e-7
20.09233002565047 	 -1.549458685259462e-7
22.051307399030456 	 -1.522059454252522e-7
24.20128264794382 	 -1.491960260660791e-7
26.560877829466868 	 -1.458880290017447e-7
29.150530628251772 	 -1.42274650906152e-7
31.992671377973828 	 -1.3842220556994417e-7
35.11191734215131 	 -1.344061323048964e-7
38.53528593710529 	 -1.3016466034324024e-7
42.29242874389499 	 -1.2567638756075322e-7
46.4158883361278 	 -1.2090736107782017e-7
50.94138014816378 	 -1.1598883905660503e-7
55.90810182512222 	 -1.1094456027992696e-7
61.35907273413173 	 -1.0570739650666745e-7
67.34150657750821 	 -1.0031823783274998e-7
73.90722033525779 	 -9.49617871006223e-8
81.11308307896873 	 -8.946255424831317e-8
89.02150854450383 	 -8.394338118145455e-8
97.70099572992251 	 -7.854213224933679e-8
107.22672220103232 	 -7.297125460091754e-8
117.68119524349979 	 -6.753385557153461e-8
129.1549665014884 	 -6.195994000380286e-8
141.74741629268047 	 -5.659855832025786e-8
155.56761439304722 	 -5.129732683885027e-8
170.73526474706904 	 -4.635042616166552e-8
187.3817422860385 	 -4.151250489887104e-8
205.65123083486515 	 -3.716438429382718e-8
225.7019719633919 	 -3.2969148591390486e-8
247.70763559917114 	 -2.918594990845496e-8
271.85882427329403 	 -2.5716711601573392e-8
298.364724028334 	 -2.2423505214703007e-8
327.45491628777285 	 -1.9616062151682708e-8
359.38136638046257 	 -1.704460111265412e-8
394.4206059437656 	 -1.4606441213887813e-8
432.8761281083057 	 -1.2672368078385814e-8
475.0810162102798 	 -1.083865469235644e-8
521.4008287999684 	 -9.017599733698876e-9
572.236765935022 	 -7.663465520372992e-9
628.0291441834253 	 -6.438388874505515e-9
689.2612104349695 	 -5.235061189059945e-9
756.463327554629 	 -4.3187819388887836e-9
830.2175681319744 	 -3.477678246314895e-9
911.1627561154896 	 -2.7744183847122034e-9
1000.0 	 -2.148297571362399e-9
