# This is an integration map on mu of the ξ multipole doppler_integratedgp GR effect.
# The following parameters were used for this computation: 
# CLASS Power Spectrum input file : "../test/datatest/file_pk.txt"
# F window function input file : "../test/datatest/F_REFERENCE.txt"
# CLASS Background input file: "../test/datatest/WideA_ZA_background.dat"
# 	 z_min = 0.05 	 z_max = 0.2
# 	 k_min = 1.0e-8 	 k_max = 10.0
# 	 h_0 = 0.7 	 Ω_b = 0.0489 	 Ω_cdm = 0.25102 	 Ω_M0 = 0.29992
# 	 comoving s_min = 148.1920001465757 Mpc/h_0
# 	 comoving s_max = 571.7022420258767 Mpc/h_0
# 	 comoving s_eff = 435.3747095690664 Mpc/h_0
# 	 comoving z_eff = 0.15045636096023224 
# 	 Volume of the survey V_survey = 3.845366167995967e8
# 	 σ_0 = 15.593462966741178
# 	 σ_1 = 15.074895881392285
# 	 σ_2 = 100.85852368830221
# 	 σ_3 = 3735.1227501923527
# 
# computational time needed (in s) : 0.7180
# kwards passed: 
# 		use_windows = false
# 		L = 0
# 		en = 1.0e12
# 		N_χs = 30
# 		μ_atol = 0.0
# 		enhancer = 1.0e8
# 		N_μs = 30
# 		N_log = 100
# 		μ_rtol = 0.01
# 
# s [Mpc/h_0] 	 	 xi
0.1 	 3.915740721788064e-8
0.10974987654930562 	 3.9157403574680624e-8
0.12045035402587821 	 3.915739918620817e-8
0.1321941148466029 	 3.9157393899967154e-8
0.14508287784959398 	 3.915738753227681e-8
0.1592282793341092 	 3.915737986189887e-8
0.17475284000076838 	 3.915737062235397e-8
0.19179102616724888 	 3.9157359492706e-8
0.21049041445120203 	 3.915734608650263e-8
0.23101297000831597 	 3.9157329938403966e-8
0.2535364493970112 	 3.9157310488057893e-8
0.2782559402207124 	 3.915728706066135e-8
0.30538555088334157 	 3.915725884351144e-8
0.3351602650938842 	 3.9157224857708954e-8
0.3678379771828633 	 3.91571839240151e-8
0.40370172585965547 	 3.9157134621588955e-8
0.44306214575838804 	 3.9157075238158406e-8
0.4862601580065353 	 3.9157003710877684e-8
0.533669923120631 	 3.915691755609604e-8
0.5857020818056666 	 3.915681378380133e-8
0.6428073117284321 	 3.9156688793498246e-8
0.7054802310718643 	 3.915653824775339e-8
0.7742636826811271 	 3.9156356920293334e-8
0.8497534359086443 	 3.915613852098731e-8
0.9326033468832199 	 3.915587548112479e-8
1.0235310218990261 	 3.9155558835645113e-8
1.1233240329780274 	 3.9155177332507617e-8
1.2328467394420661 	 3.9154717877923016e-8
1.353047774579807 	 3.9154164555655215e-8
1.484968262254465 	 3.915349820515548e-8
1.6297508346206442 	 3.915269577890871e-8
1.788649529057435 	 3.915172951584614e-8
1.9630406500402708 	 3.915056602593393e-8
2.154434690031884 	 3.914916515646019e-8
2.3644894126454075 	 3.9147478593455595e-8
2.595024211399736 	 3.9145448272373266e-8
2.8480358684358014 	 3.9143004427819735e-8
3.1257158496882362 	 3.914006324255187e-8
3.4304692863149184 	 3.9136524086104905e-8
3.7649358067924683 	 3.913226622254274e-8
4.132012400115337 	 3.912714494823592e-8
4.534878508128582 	 3.9120986992785605e-8
4.977023564332112 	 3.9113585103003745e-8
5.462277217684341 	 3.910469184239891e-8
5.99484250318941 	 3.909401219846341e-8
6.579332246575681 	 3.908119549414462e-8
7.220809018385464 	 3.9065825755067583e-8
7.924828983539173 	 3.904741182176823e-8
8.697490026177835 	 3.9025376019077506e-8
9.54548456661834 	 3.89990433392874e-8
10.476157527896646 	 3.89676308701941e-8
11.497569953977356 	 3.8930239947733894e-8
12.618568830660204 	 3.888585332852274e-8
13.848863713938732 	 3.8833341158461693e-8
15.199110829529339 	 3.877148309310249e-8
16.68100537200059 	 3.8699003775420685e-8
18.30738280295368 	 3.861454739310836e-8
20.09233002565047 	 3.851656583577597e-8
22.051307399030456 	 3.840326035080195e-8
24.20128264794382 	 3.827256758150015e-8
26.560877829466868 	 3.812217047029799e-8
29.150530628251772 	 3.794955501949991e-8
31.992671377973828 	 3.7752145454129326e-8
35.11191734215131 	 3.752751441889002e-8
38.53528593710529 	 3.7273259531927564e-8
42.29242874389499 	 3.698664021232697e-8
46.4158883361278 	 3.6664632710468564e-8
50.94138014816378 	 3.630429974344815e-8
55.90810182512222 	 3.590325713305767e-8
61.35907273413173 	 3.545920442340692e-8
67.34150657750821 	 3.496951065418035e-8
73.90722033525779 	 3.443201464494971e-8
81.11308307896873 	 3.384531644919911e-8
89.02150854450383 	 3.320766125884184e-8
97.70099572992251 	 3.251767211324867e-8
107.22672220103232 	 3.177461733699186e-8
117.68119524349979 	 3.097817672149072e-8
129.1549665014884 	 3.013078460486222e-8
141.74741629268047 	 2.9236538577812198e-8
155.56761439304722 	 2.8301322110985013e-8
170.73526474706904 	 2.7331477582694053e-8
187.3817422860385 	 2.63340512310032e-8
205.65123083486515 	 2.5315992996344478e-8
225.7019719633919 	 2.4284659563259618e-8
247.70763559917114 	 2.324715201276803e-8
271.85882427329403 	 2.22106911041754e-8
298.364724028334 	 2.118235059422482e-8
327.45491628777285 	 2.0168931961528903e-8
359.38136638046257 	 1.91772995203691e-8
394.4206059437656 	 1.8214195678704356e-8
432.8761281083057 	 1.7286327625385626e-8
475.0810162102798 	 1.6399169731481177e-8
521.4008287999684 	 1.555380627959185e-8
572.236765935022 	 1.4749351907969902e-8
628.0291441834253 	 1.398523648337425e-8
689.2612104349695 	 1.3260912610804422e-8
756.463327554629 	 1.2575625614234878e-8
830.2175681319744 	 1.1928995001666257e-8
911.1627561154896 	 1.1320459363739114e-8
1000.0 	 1.0749127552965927e-8
