# This is an integration map on mu of the ξ multipole auto_integratedgp GR effect.
# The following parameters were used for this computation: 
# CLASS Power Spectrum input file : "../../test/datatest/file_pk.txt"
# F window function input file : "../../test/datatest/F_REFERENCE.txt"
# CLASS Background input file: "../../test/datatest/WideA_ZA_background.dat"
# 	 z_min = 0.05 	 z_max = 0.2
# 	 k_min = 1.0e-8 	 k_max = 10.0
# 	 h_0 = 0.7 	 Ω_b = 0.0489 	 Ω_cdm = 0.25102 	 Ω_M0 = 0.29992
# 	 comoving s_min = 148.1920001465757 Mpc/h_0
# 	 comoving s_max = 571.7022420258767 Mpc/h_0
# 	 comoving s_eff = 435.3747095690664 Mpc/h_0
# 	 comoving z_eff = 0.15045636096023224 
# 	 Volume of the survey V_survey = 3.845366167995967e8
# 	 σ_0 = 15.593462966741178
# 	 σ_1 = 15.074895881392285
# 	 σ_2 = 100.85852368830221
# 	 σ_3 = 3735.1227501923527
# 
# computational time needed (in s) : 263.3343
# kwards passed: 
# 		use_windows = false
# 		N_χs = 100
# 		μ_rtol = 0.001
# 		N_μs = 50
# 
# s [Mpc/h_0] 	 	 xi
0.1 	 -3.4881100702133105e-10
0.10092621909870476 	 -3.488110079320128e-10
0.10186101701559758 	 -3.4881100885964096e-10
0.10280447320933092 	 -3.4881100980453056e-10
0.10375666787451857 	 -3.4881101076700354e-10
0.10471768194855202 	 -3.4881101174738695e-10
0.10568759711848043 	 -3.4881101274601413e-10
0.10666649582795393 	 -3.488110137632243e-10
0.10765446128423156 	 -3.4881101479936386e-10
0.1086515774652538 	 -3.4881101585478433e-10
0.10965792912678099 	 -3.488110169298444e-10
0.11067360180959737 	 -3.488110180249104e-10
0.11169868184678232 	 -3.4881101914035333e-10
0.11273325637104868 	 -3.4881102027655383e-10
0.1137774133221491 	 -3.4881102143389754e-10
0.11483124145435111 	 -3.488110226127779e-10
0.1158948303439811 	 -3.4881102381359545e-10
0.11696827039703853 	 -3.488110250367583e-10
0.11805165285688052 	 -3.488110262826829e-10
0.11914506981197756 	 -3.4881102755179214e-10
0.12024861420374122 	 -3.488110288445178e-10
0.12136237983442408 	 -3.4881103016129887e-10
0.12248646137509314 	 -3.4881103150258397e-10
0.12362095437367689 	 -3.4881103286882836e-10
0.12476595526308698 	 -3.4881103426049636e-10
0.1259215613694151 	 -3.488110356780615e-10
0.12708787092020585 	 -3.4881103712200553e-10
0.12826498305280606 	 -3.4881103859281956e-10
0.12945299782279157 	 -3.4881104009100257e-10
0.13065201621247213 	 -3.488110416170653e-10
0.13186214013947484 	 -3.4881104317152507e-10
0.1330834724654075 	 -3.4881104475491156e-10
0.1343161170046016 	 -3.4881104636776264e-10
0.13556017853293686 	 -3.488110480106261e-10
0.1368157627967472 	 -3.488110496840607e-10
0.13808297652180923 	 -3.4881105138863574e-10
0.13936192742241424 	 -3.4881105312493014e-10
0.14065272421052372 	 -3.488110548935346e-10
0.14195547660501012 	 -3.488110566950499e-10
0.1432702953409831 	 -3.4881105853008834e-10
0.144597292179202 	 -3.488110603992745e-10
0.14593657991557565 	 -3.48811062303243e-10
0.14728827239075026 	 -3.488110642426416e-10
0.1486524844997857 	 -3.488110662181295e-10
0.15002933220192183 	 -3.488110682303777e-10
0.15141893253043523 	 -3.4881107028007066e-10
0.15282140360258697 	 -3.4881107236790513e-10
0.15423686462966282 	 -3.4881107449459124e-10
0.15566543592710616 	 -3.4881107666085096e-10
0.15710723892474504 	 -3.488110788674216e-10
0.15856239617711376 	 -3.488110811150529e-10
0.16003103137387006 	 -3.4881108340450863e-10
0.16151326935030905 	 -3.488110857365676e-10
0.16300923609797408 	 -3.488110881120221e-10
0.16451905877536624 	 -3.4881109053168017e-10
0.166042865718753 	 -3.4881109299636334e-10
0.16758078645307678 	 -3.4881109550691037e-10
0.1691329517029648 	 -3.4881109806417444e-10
0.17069949340384075 	 -3.4881110066902456e-10
0.1722805447131394 	 -3.4881110332234647e-10
0.17387624002162508 	 -3.488111060250419e-10
0.1754867149648151 	 -3.4881110877802954e-10
0.17711210643450878 	 -3.4881111158224513e-10
0.1787525525904235 	 -3.488111144386418e-10
0.18040819287193827 	 -3.4881111734819124e-10
0.18207916800994628 	 -3.48811120311882e-10
0.18376562003881713 	 -3.488111233307214e-10
0.18546769230846985 	 -3.4881112640573545e-10
0.18718552949655787 	 -3.488111295379696e-10
0.18891927762076663 	 -3.488111327284889e-10
0.19066908405122523 	 -3.4881113597837713e-10
0.19243509752303312 	 -3.488111392887393e-10
0.1942174681489026 	 -3.488111426607007e-10
0.1960163474319185 	 -3.4881114609540736e-10
0.19783188827841644 	 -3.4881114959402695e-10
0.1996642450109794 	 -3.4881115315774846e-10
0.20151357338155576 	 -3.488111567877835e-10
0.20338003058469817 	 -3.4881116048536565e-10
0.20526377527092515 	 -3.488111642517518e-10
0.2071649675602069 	 -3.4881116808822177e-10
0.20908376905557505 	 -3.488111719960802e-10
0.21102034285685956 	 -3.4881117597665507e-10
0.21297485357455204 	 -3.488111800312993e-10
0.214947467343798 	 -3.4881118416139097e-10
0.21693835183851842 	 -3.4881118836833427e-10
0.2189476762856621 	 -3.4881119265355863e-10
0.22097561147959022 	 -3.4881119701852057e-10
0.2230223297965938 	 -3.4881120146470384e-10
0.22508800520954617 	 -3.4881120599361974e-10
0.2271728133026905 	 -3.488112106068074e-10
0.22927693128656493 	 -3.488112153058344e-10
0.2314005380130653 	 -3.488112200922989e-10
0.23354381399064789 	 -3.488112249678266e-10
0.23570694139967277 	 -3.4881122993407485e-10
0.23789010410788933 	 -3.488112349927321e-10
0.24009348768606525 	 -3.488112401455172e-10
0.24231727942375994 	 -3.488112453941815e-10
0.2445616683452446 	 -3.4881125074050924e-10
0.24682684522556925 	 -3.48811256186317e-10
0.24911300260677885 	 -3.4881126173345617e-10
0.2514203348142797 	 -3.488112673838119e-10
0.253749037973357 	 -3.4881127313930436e-10
0.25609931002584585 	 -3.4881127900188967e-10
0.2584713507469564 	 -3.4881128497356035e-10
0.26086536176225483 	 -3.488112910563466e-10
0.26328154656480207 	 -3.4881129725231545e-10
0.26572011053245054 	 -3.488113035635722e-10
0.2681812609453015 	 -3.4881130999226307e-10
0.27066520700332414 	 -3.4881131654057175e-10
0.2731721598441377 	 -3.488113232107246e-10
0.27570233256095833 	 -3.4881133000498804e-10
0.2782559402207124 	 -3.4881133692567177e-10
0.2808331998823172 	 -3.488113439751277e-10
0.2834343306151309 	 -3.4881135115575187e-10
0.2860595535175743 	 -3.4881135846998456e-10
0.2887090917359235 	 -3.4881136592031194e-10
0.2913831704832787 	 -3.4881137350926527e-10
0.2940820170587063 	 -3.4881138123942536e-10
0.29680586086656024 	 -3.4881138911341867e-10
0.2995549334359814 	 -3.488113971339205e-10
0.3023294684405778 	 -3.4881140530365827e-10
0.3051297017182869 	 -3.4881141362540765e-10
0.3079558712914226 	 -3.4881142210199743e-10
0.3108082173869064 	 -3.4881143073630766e-10
0.31368698245668775 	 -3.4881143953127414e-10
0.3165924111983522 	 -3.488114484898849e-10
0.3195247505759212 	 -3.488114576151853e-10
0.3224842498408441 	 -3.4881146691027655e-10
0.3254711605531848 	 -3.4881147637831763e-10
0.32848573660300445 	 -3.4881148602252645e-10
0.33152823423194244 	 -3.488114958461801e-10
0.33459891205499737 	 -3.48811505852618e-10
0.3376980310825091 	 -3.4881151604524107e-10
0.34082585474234517 	 -3.488115264275127e-10
0.3439826489022925 	 -3.488115370029614e-10
0.3471686818926561 	 -3.488115477751814e-10
0.3503842245290674 	 -3.488115587478336e-10
0.35362955013550423 	 -3.4881156992464676e-10
0.356904934567523 	 -3.4881158130942e-10
0.3602106562357071 	 -3.488115929060217e-10
0.36354699612933195 	 -3.488116047183929e-10
0.36691423784024924 	 -3.4881161675054844e-10
0.37031266758699266 	 -3.4881162900657654e-10
0.3737425742391064 	 -3.4881164149064277e-10
0.3772042493416998 	 -3.4881165420698876e-10
0.3806979871402286 	 -3.4881166715993767e-10
0.38422408460550594 	 -3.4881168035388963e-10
0.3877828414589457 	 -3.4881169379332935e-10
0.39137456019803846 	 -3.4881170748282304e-10
0.3949995461220644 	 -3.4881172142702404e-10
0.3986581073580441 	 -3.4881173563067004e-10
0.40235055488692917 	 -3.488117500985876e-10
0.4060772025700365 	 -3.4881176483569397e-10
0.4098383671757262 	 -3.488117798469969e-10
0.41363436840632745 	 -3.4881179513759745e-10
0.4174655289253137 	 -3.4881181071269164e-10
0.4213321743847288 	 -3.4881182657757236e-10
0.42523463345286816 	 -3.4881184273763027e-10
0.4291732378422158 	 -3.488118591983575e-10
0.43314832233763995 	 -3.4881187596534737e-10
0.43716022482485045 	 -3.4881189304429716e-10
0.4412092863191189 	 -3.488119104410108e-10
0.4452958509942655 	 -3.4881192816140065e-10
0.4494202662119143 	 -3.488119462114868e-10
0.4535828825510188 	 -3.4881196459740316e-10
0.45778405383766185 	 -3.4881198332539804e-10
0.4620241371751312 	 -3.4881200240183495e-10
0.4663034929742731 	 -3.488120218331964e-10
0.47062248498412823 	 -3.488120416260838e-10
0.47498148032285015 	 -3.488120617872245e-10
0.4793808495089109 	 -3.4881208232346857e-10
0.4838209664925956 	 -3.4881210324179357e-10
0.488302208687788 	 -3.4881212454930823e-10
0.4928249570040514 	 -3.4881214625325204e-10
0.49738959587900644 	 -3.488121683610006e-10
0.5019965133110081 	 -3.4881219088006454e-10
0.5066461008921267 	 -3.4881221381809704e-10
0.5113387538414326 	 -3.4881223718289075e-10
0.5160748710385908 	 -3.488122609823854e-10
0.5208548550577662 	 -3.4881228522466794e-10
0.5256791122018423 	 -3.488123099179749e-10
0.5305480525369572 	 -3.488123350706961e-10
0.5354620899273608 	 -3.4881236069137904e-10
0.5404216420705915 	 -3.488123867887288e-10
0.5454271305329833 	 -3.4881241337161236e-10
0.5504789807854971 	 -3.488124404490613e-10
0.5555776222398876 	 -3.488124680302778e-10
0.5607234882852032 	 -3.488124961246316e-10
0.5659170163246243 	 -3.488125247416688e-10
0.5711586478126431 	 -3.488125538911127e-10
0.5764488282925877 	 -3.4881258358286833e-10
0.5817880074344934 	 -3.488126138270227e-10
0.5871766390733255 	 -3.4881264463385233e-10
0.5926151812475554 	 -3.4881267601382496e-10
0.598104096238094 	 -3.488127079776017e-10
0.6036438506075867 	 -3.488127405360426e-10
0.609234915240071 	 -3.48812773700211e-10
0.6148777653810024 	 -3.48812807481373e-10
0.6205728806776502 	 -3.4881284189100684e-10
0.6263207452198689 	 -3.4881287694080275e-10
0.6321218475812452 	 -3.4881291264267026e-10
0.6379766808606282 	 -3.488129490087379e-10
0.643885742724042 	 -3.4881298605136105e-10
0.649849535446989 	 -3.4881302378312616e-10
0.6558685659571432 	 -3.4881306221685034e-10
0.6619433458774393 	 -3.4881310136559176e-10
0.6680743915695614 	 -3.4881314124265103e-10
0.6742622241778342 	 -3.488131818615764e-10
0.6805073696735208 	 -3.488132232361656e-10
0.6868103588995303 	 -3.488132653804755e-10
0.6931717276155405 	 -3.4881330830882383e-10
0.6995920165435373 	 -3.488133520357932e-10
0.7060717714137773 	 -3.4881339657623845e-10
0.7126115430111748 	 -3.488134419452911e-10
0.7192118872221189 	 -3.488134881583626e-10
0.7258733650817251 	 -3.4881353523115204e-10
0.732596542821523 	 -3.488135831796494e-10
0.7393819919175867 	 -3.488136320201439e-10
0.746230289139111 	 -3.4881368176922473e-10
0.7531420165974372 	 -3.4881373244379157e-10
0.7601177617955328 	 -3.488137840610589e-10
0.7671581176779302 	 -3.488138366385594e-10
0.7742636826811271 	 -3.4881389019415285e-10
0.7814350607844545 	 -3.48813944746032e-10
0.7886728615614153 	 -3.4881400031272715e-10
0.7959777002314984 	 -3.488140569131121e-10
0.8033501977124734 	 -3.488141145664124e-10
0.8107909806731688 	 -3.4881417329221283e-10
0.8183006815867393 	 -3.4881423311045903e-10
0.8258799387844268 	 -3.488142940414694e-10
0.8335293965098194 	 -3.488143561059407e-10
0.8412497049736117 	 -3.488144193249534e-10
0.8490415204088748 	 -3.488144837199797e-10
0.856905505126835 	 -3.488145493128904e-10
0.8648423275731723 	 -3.4881461612596594e-10
0.8728526623848377 	 -3.488146841818967e-10
0.880937190447399 	 -3.488147535037974e-10
0.8890965989529159 	 -3.488148241152134e-10
0.8973315814583523 	 -3.488148960401254e-10
0.905642837944529 	 -3.488149693029606e-10
0.914031074875623 	 -3.488150439286012e-10
0.9224970052592174 	 -3.4881511994239325e-10
0.9310413487069077 	 -3.4881519737014945e-10
0.9396648314954694 	 -3.4881527623816616e-10
0.9483681866285923 	 -3.488153565732283e-10
0.9571521538991863 	 -3.488154384026161e-10
0.9660174799522646 	 -3.488155217541186e-10
0.9749649183484088 	 -3.4881560665604124e-10
0.983995229627823 	 -3.48815693137216e-10
0.9931091813749796 	 -3.4881578122700747e-10
1.0023075482838653 	 -3.488158719595021e-10
1.0115911122238297 	 -3.488159633755314e-10
1.0209606623060468 	 -3.4881605649194405e-10
1.030416994950588 	 -3.4881615134035747e-10
1.03996091395412 	 -3.48816247952978e-10
1.0495932305582274 	 -3.4881634636260717e-10
1.05931476351837 	 -3.488164466026578e-10
1.0691263391734764 	 -3.4881654870716305e-10
1.079028791516184 	 -3.488166527107924e-10
1.0890229622637302 	 -3.488167586488538e-10
1.099109700929497 	 -3.4881686655731545e-10
1.1092898648952227 	 -3.4881697647281567e-10
1.1195643194838785 	 -3.488170884326681e-10
1.1299339380332223 	 -3.488172024748836e-10
1.1403996019700327 	 -3.4881731863817724e-10
1.1509622008850322 	 -3.4881743696198663e-10
1.161622632608502 	 -3.4881755748647763e-10
1.172381803286599 	 -3.4881768025256496e-10
1.1832406274583787 	 -3.488178053019287e-10
1.194200028133532 	 -3.4881793267701415e-10
1.2052609368708425 	 -3.4881806242106256e-10
1.216424293857368 	 -3.488181945781167e-10
1.2276910479883596 	 -3.4881832919303645e-10
1.2390621569479163 	 -3.488184663115138e-10
1.250538587290391 	 -3.4881860598008855e-10
1.2621213145225472 	 -3.488187482461706e-10
1.2738113231864785 	 -3.48818893158041e-10
1.2856096069432956 	 -3.4881904076488363e-10
1.2975171686575875 	 -3.4881919111679805e-10
1.3095350204826672 	 -3.48819344264809e-10
1.321664183946605 	 -3.4881950026089317e-10
1.333905690039059 	 -3.4881965915799153e-10
1.3462605792989102 	 -3.4881982101003325e-10
1.35872990190271 	 -3.4881998587194135e-10
1.371314717753945 	 -3.488201537996639e-10
1.3840160965731314 	 -3.48820324850192e-10
1.39683511798874 	 -3.488204990815663e-10
1.4097728716289668 	 -3.4882067655291093e-10
1.4228304572143526 	 -3.4882085732444656e-10
1.4360089846512603 	 -3.488210414575128e-10
1.4493095741262165 	 -3.4882122901458335e-10
1.46273335620113 	 -3.488214200592921e-10
1.47628147190939 	 -3.4882161465646253e-10
1.4899550728528546 	 -3.488218128721079e-10
1.503755321299738 	 -3.4882201477347775e-10
1.5176833902834053 	 -3.488222204290712e-10
1.53174046370208 	 -3.4882242990865575e-10
1.5459277364194774 	 -3.488226432832959e-10
1.5602464143663688 	 -3.4882286062537523e-10
1.5746977146430863 	 -3.488230820086285e-10
1.5892828656229778 	 -3.488233075081457e-10
1.6040031070568201 	 -3.4882353720042143e-10
1.6188596901781982 	 -3.488237711633738e-10
1.6338538778098612 	 -3.4882400947635726e-10
1.6489869444710645 	 -3.488242522202056e-10
1.6642601764859035 	 -3.488244994772487e-10
1.6796748720926535 	 -3.4882475133134756e-10
1.6952323415541204 	 -3.488250078679076e-10
1.7109339072690144 	 -3.4882526917392315e-10
1.7267809038843556 	 -3.4882553533801163e-10
1.742774678408919 	 -3.4882580645041814e-10
1.7589165903277328 	 -3.488260826030766e-10
1.775208011717635 	 -3.488263638896244e-10
1.7916503273639006 	 -3.488266504054366e-10
1.8082449348779512 	 -3.48826942247655e-10
1.8249932448161523 	 -3.4882723951522484e-10
1.8418966807997113 	 -3.4882754230893853e-10
1.8589566796356871 	 -3.4882785073143747e-10
1.8761746914391206 	 -3.4882816488728094e-10
1.893552179756295 	 -3.488284848829684e-10
1.911090621689138 	 -3.4882881082696306e-10
1.9287915080207783 	 -3.488291428297464e-10
1.9466563433422621 	 -3.488294810038465e-10
1.9646866461804458 	 -3.488298254638889e-10
1.982883949127071 	 -3.488301763266068e-10
2.001249798969037 	 -3.4883053371090765e-10
2.019785756819879 	 -3.488308977379116e-10
2.0384933982524633 	 -3.488312685309627e-10
2.0573743134329128 	 -3.488316462157048e-10
2.0764301072557747 	 -3.4883203092010404e-10
2.095662399480433 	 -3.488324227744995e-10
2.115072824868795 	 -3.4883282191163515e-10
2.1346630333242445 	 -3.488332284667197e-10
2.154434690031884 	 -3.488336425774839e-10
2.17438947560008 	 -3.4883406438418506e-10
2.194529086203314 	 -3.48834494029702e-10
2.2148552337263596 	 -3.4883493165956296e-10
2.2353696459097954 	 -3.488353774219883e-10
2.256074066496861 	 -3.4883583146794764e-10
2.2769702553816797 	 -3.4883629395120544e-10
2.2980599887588515 	 -3.488367650283903e-10
2.3193450592744282 	 -3.488372448590001e-10
2.340827276178293 	 -3.488377336055045e-10
2.362508465477947 	 -3.4883823143338616e-10
2.38439047009372 	 -3.4883873851117315e-10
2.4064751500154244 	 -3.488392550105306e-10
2.428764382460451 	 -3.488397811062979e-10
2.4512600620333385 	 -3.4884031697656437e-10
2.4739641008868136 	 -3.488408628026927e-10
2.4968784288843264 	 -3.48841418769415e-10
2.5200049937640925 	 -3.4884198506489595e-10
2.543345761304649 	 -3.488425618807423e-10
2.5669027154919504 	 -3.488431494121267e-10
2.590677858688008 	 -3.488437478578262e-10
2.6146732118010916 	 -3.488443574202971e-10
2.6388908144575107 	 -3.4884497830573694e-10
2.663332725174982 	 -3.4884561072416765e-10
2.6880010215376062 	 -3.488462548895294e-10
2.7128978003724664 	 -3.488469110196842e-10
2.7380251779278577 	 -3.488475793365583e-10
2.7633852900531704 	 -3.488482600661873e-10
2.7889802923804408 	 -3.4884895343876286e-10
2.8148123605075797 	 -3.4884965968874127e-10
2.8408836901833032 	 -3.4885037905490285e-10
2.8671964974937696 	 -3.488511117804636e-10
2.893753019050951 	 -3.4885185811309205e-10
2.9205555121827462 	 -3.4885261830505955e-10
2.9476062551248576 	 -3.488533926133179e-10
2.97490754721444 	 -3.488541812995316e-10
3.002461709085549 	 -3.4885498463023183e-10
3.030271082866397 	 -3.488558028768677e-10
3.058338032378433 	 -3.4885663631591353e-10
3.0866649433372735 	 -3.4885748522892563e-10
3.115254223555487 	 -3.488583499026707e-10
3.1441083031472647 	 -3.4885923062924157e-10
3.173229634734977 	 -3.4886012770606467e-10
3.202620693657652 	 -3.4886104143610554e-10
3.2322839781813792 	 -3.4886197212792746e-10
3.262222009711669 	 -3.4886292009577687e-10
3.292437333007769 	 -3.4886388565970286e-10
3.3229325163989727 	 -3.488648691456522e-10
3.3537101520029307 	 -3.4886587088561804e-10
3.384772855945981 	 -3.4886689121764663e-10
3.4161232685855274 	 -3.4886793048605985e-10
3.4477640547344643 	 -3.488689890415405e-10
3.4796979038876925 	 -3.488700672412027e-10
3.5119275304507296 	 -3.4887116544877973e-10
3.5444556739704347 	 -3.4887228403470225e-10
3.5772850993678724 	 -3.4887342337626194e-10
3.610418597173337 	 -3.4887458385765443e-10
3.6438589837635456 	 -3.488757658701909e-10
3.6776091016010324 	 -3.488769698124281e-10
3.711671819475766 	 -3.48878196090195e-10
3.746050032748992 	 -3.488794451168496e-10
3.7807466635993494 	 -3.488807173133502e-10
3.8157646612712495 	 -3.488820131084062e-10
3.8511070023255707 	 -3.488833329386011e-10
3.886776690892667 	 -3.4888467724856443e-10
3.9227767589277187 	 -3.4888604649116354e-10
3.9591102664684588 	 -3.488874411275062e-10
3.9957803018952704 	 -3.4888886162725086e-10
4.032789982193707 	 -3.4889030846870123e-10
4.070142453219438 	 -3.48891782138924e-10
4.1078408899656464 	 -3.4889328313396535e-10
4.145888496832911 	 -3.4889481195898325e-10
4.184288507901582 	 -3.4889636912847105e-10
4.223044187206674 	 -3.488979551662788e-10
4.262158829015324 	 -3.4889957060593363e-10
4.301635758106795 	 -3.489012159907971e-10
4.341478330055092 	 -3.489028918741221e-10
4.381689931514191 	 -3.4890459881939574e-10
4.422273980505899 	 -3.489063374004508e-10
4.463233926710396 	 -3.489081082016926e-10
4.504573251759458 	 -3.4890991181820854e-10
4.5462954695324 	 -3.4891174885603855e-10
4.5884041264547575 	 -3.489136199324129e-10
4.630902801799739 	 -3.4891552567575237e-10
4.673795107992462 	 -3.489174667260899e-10
4.717084690917018 	 -3.4891944373520696e-10
4.760775230226369 	 -3.489214573668117e-10
4.80487043965513 	 -3.489235082967904e-10
4.849374067335235 	 -3.4892559721341427e-10
4.894289896114531 	 -3.489277248176508e-10
4.9396217438783205 	 -3.4892989182317507e-10
4.985373463873895 	 -3.489320989568282e-10
5.031548945038053 	 -3.489343469587726e-10
5.078152112327674 	 -3.489366365826057e-10
