# This is an integration map on mu of the ξ multipole integratedgp_localgp GR effect.
# The following parameters were used for this computation: 
# CLASS Power Spectrum input file : "../../test/datatest/file_pk.txt"
# F window function input file : "../../test/datatest/F_REFERENCE.txt"
# CLASS Background input file: "../../test/datatest/WideA_ZA_background.dat"
# 	 z_min = 0.05 	 z_max = 0.2
# 	 k_min = 1.0e-8 	 k_max = 10.0
# 	 h_0 = 0.7 	 Ω_b = 0.0489 	 Ω_cdm = 0.25102 	 Ω_M0 = 0.29992
# 	 comoving s_min = 148.1920001465757 Mpc/h_0
# 	 comoving s_max = 571.7022420258767 Mpc/h_0
# 	 comoving s_eff = 435.3747095690664 Mpc/h_0
# 	 comoving z_eff = 0.15045636096023224 
# 	 Volume of the survey V_survey = 3.845366167995967e8
# 	 σ_0 = 15.593462966741178
# 	 σ_1 = 15.074895881392285
# 	 σ_2 = 100.85852368830221
# 	 σ_3 = 3735.1227501923527
# 
# computational time needed (in s) : 11.1529
# kwards passed: 
# 		use_windows = false
# 		N_μs = 50
# 
# s [Mpc/h_0] 	 	 xi
0.1 	 -2.2881175793323343e-9
0.10092621909870476 	 -2.288117584859522e-9
0.10186101701559758 	 -2.28811759048958e-9
0.10280447320933092 	 -2.2881175962244315e-9
0.10375666787451857 	 -2.2881176020660228e-9
0.10471768194855202 	 -2.288117608016327e-9
0.10568759711848043 	 -2.2881176140773416e-9
0.10666649582795393 	 -2.288117620251134e-9
0.10765446128423156 	 -2.2881176265398077e-9
0.1086515774652538 	 -2.288117632945503e-9
0.10965792912678099 	 -2.2881176394703893e-9
0.11067360180959737 	 -2.2881176461167037e-9
0.11169868184678232 	 -2.288117652886695e-9
0.11273325637104868 	 -2.288117659782653e-9
0.1137774133221491 	 -2.288117666806936e-9
0.11483124145435111 	 -2.2881176739619337e-9
0.1158948303439811 	 -2.288117681250064e-9
0.11696827039703853 	 -2.2881176886738082e-9
0.11805165285688052 	 -2.2881176962357048e-9
0.11914506981197756 	 -2.288117703938315e-9
0.12024861420374122 	 -2.288117711784244e-9
0.12136237983442408 	 -2.2881177197761748e-9
0.12248646137509314 	 -2.2881177279168306e-9
0.12362095437367689 	 -2.2881177362089548e-9
0.12476595526308698 	 -2.2881177446553804e-9
0.1259215613694151 	 -2.2881177532589864e-9
0.12708787092020585 	 -2.288117762022684e-9
0.12826498305280606 	 -2.288117770949449e-9
0.12945299782279157 	 -2.2881177800423295e-9
0.13065201621247213 	 -2.2881177893044148e-9
0.13186214013947484 	 -2.2881177987388406e-9
0.1330834724654075 	 -2.2881178083488202e-9
0.1343161170046016 	 -2.288117818137634e-9
0.13556017853293686 	 -2.2881178281085897e-9
0.1368157627967472 	 -2.288117838265073e-9
0.13808297652180923 	 -2.288117848610562e-9
0.13936192742241424 	 -2.288117859148561e-9
0.14065272421052372 	 -2.2881178698826346e-9
0.14195547660501012 	 -2.288117880816454e-9
0.1432702953409831 	 -2.288117891953736e-9
0.144597292179202 	 -2.2881179032982494e-9
0.14593657991557565 	 -2.288117914853853e-9
0.14728827239075026 	 -2.288117926624495e-9
0.1486524844997857 	 -2.288117938614162e-9
0.15002933220192183 	 -2.288117950826913e-9
0.15141893253043523 	 -2.2881179632669273e-9
0.15282140360258697 	 -2.2881179759384264e-9
0.15423686462966282 	 -2.2881179888457026e-9
0.15566543592710616 	 -2.288118001993147e-9
0.15710723892474504 	 -2.288118015385252e-9
0.15856239617711376 	 -2.288118029026542e-9
0.16003103137387006 	 -2.2881180429216537e-9
0.16151326935030905 	 -2.2881180570753327e-9
0.16300923609797408 	 -2.2881180714923774e-9
0.16451905877536624 	 -2.2881180861776717e-9
0.166042865718753 	 -2.288118101136224e-9
0.16758078645307678 	 -2.288118116373132e-9
0.1691329517029648 	 -2.288118131893546e-9
0.17069949340384075 	 -2.288118147702744e-9
0.1722805447131394 	 -2.2881181638061246e-9
0.17387624002162508 	 -2.2881181802091443e-9
0.1754867149648151 	 -2.2881181969173592e-9
0.17711210643450878 	 -2.2881182139364767e-9
0.1787525525904235 	 -2.2881182312722864e-9
0.18040819287193827 	 -2.2881182489306408e-9
0.18207916800994628 	 -2.288118266917567e-9
0.18376562003881713 	 -2.288118285239194e-9
0.18546769230846985 	 -2.288118303901721e-9
0.18718552949655787 	 -2.288118322911482e-9
0.18891927762076663 	 -2.2881183422749706e-9
0.19066908405122523 	 -2.288118361998763e-9
0.19243509752303312 	 -2.288118382089525e-9
0.1942174681489026 	 -2.288118402554112e-9
0.1960163474319185 	 -2.2881184233994974e-9
0.19783188827841644 	 -2.28811844463273e-9
0.1996642450109794 	 -2.2881184662610255e-9
0.20151357338155576 	 -2.2881184882917648e-9
0.20338003058469817 	 -2.2881185107324245e-9
0.20526377527092515 	 -2.2881185335905905e-9
0.2071649675602069 	 -2.288118556874075e-9
0.20908376905557505 	 -2.288118580590798e-9
0.21102034285685956 	 -2.2881186047487745e-9
0.21297485357455204 	 -2.288118629356221e-9
0.214947467343798 	 -2.2881186544215436e-9
0.21693835183851842 	 -2.288118679953232e-9
0.2189476762856621 	 -2.288118705959926e-9
0.22097561147959022 	 -2.288118732450519e-9
0.2230223297965938 	 -2.2881187594340075e-9
0.22508800520954617 	 -2.288118786919515e-9
0.2271728133026905 	 -2.2881188149164105e-9
0.22927693128656493 	 -2.2881188434342367e-9
0.2314005380130653 	 -2.288118872482644e-9
0.23354381399064789 	 -2.288118902071485e-9
0.23570694139967277 	 -2.2881189322108744e-9
0.23789010410788933 	 -2.288118962911042e-9
0.24009348768606525 	 -2.2881189941823567e-9
0.24231727942375994 	 -2.2881190260355067e-9
0.2445616683452446 	 -2.2881190584813304e-9
0.24682684522556925 	 -2.2881190915307987e-9
0.24911300260677885 	 -2.2881191251951487e-9
0.2514203348142797 	 -2.2881191594858735e-9
0.253749037973357 	 -2.2881191944145993e-9
0.25609931002584585 	 -2.288119229993143e-9
0.2584713507469564 	 -2.2881192662336622e-9
0.26086536176225483 	 -2.2881193031484876e-9
0.26328154656480207 	 -2.2881193407500863e-9
0.26572011053245054 	 -2.2881193790512713e-9
0.2681812609453015 	 -2.2881194180651067e-9
0.27066520700332414 	 -2.288119457804803e-9
0.2731721598441377 	 -2.2881194982838298e-9
0.27570233256095833 	 -2.2881195395160214e-9
0.2782559402207124 	 -2.2881195815153832e-9
0.2808331998823172 	 -2.2881196242961053e-9
0.2834343306151309 	 -2.288119667872789e-9
0.2860595535175743 	 -2.288119712260282e-9
0.2887090917359235 	 -2.2881197574735935e-9
0.2913831704832787 	 -2.288119803528084e-9
0.2940820170587063 	 -2.2881198504394816e-9
0.29680586086656024 	 -2.2881198982236984e-9
0.2995549334359814 	 -2.2881199468968966e-9
0.3023294684405778 	 -2.2881199964757008e-9
0.3051297017182869 	 -2.288120046976985e-9
0.3079558712914226 	 -2.28812009841781e-9
0.3108082173869064 	 -2.288120150815688e-9
0.31368698245668775 	 -2.2881202041884967e-9
0.3165924111983522 	 -2.2881202585543154e-9
0.3195247505759212 	 -2.288120313931555e-9
0.3224842498408441 	 -2.2881203703391386e-9
0.3254711605531848 	 -2.288120427796231e-9
0.32848573660300445 	 -2.2881204863222463e-9
0.33152823423194244 	 -2.288120545937133e-9
0.33459891205499737 	 -2.2881206066612205e-9
0.3376980310825091 	 -2.288120668515042e-9
0.34082585474234517 	 -2.288120731519586e-9
0.3439826489022925 	 -2.288120795696369e-9
0.3471686818926561 	 -2.288120861067169e-9
0.3503842245290674 	 -2.2881209276540806e-9
0.35362955013550423 	 -2.2881209954798274e-9
0.356904934567523 	 -2.2881210645675027e-9
0.3602106562357071 	 -2.288121134940454e-9
0.36354699612933195 	 -2.2881212066225996e-9
0.36691423784024924 	 -2.2881212796384125e-9
0.37031266758699266 	 -2.288121354012637e-9
0.3737425742391064 	 -2.2881214297704343e-9
0.3772042493416998 	 -2.2881215069376848e-9
0.3806979871402286 	 -2.288121585540624e-9
0.38422408460550594 	 -2.288121665605805e-9
0.3877828414589457 	 -2.2881217471604977e-9
0.39137456019803846 	 -2.2881218302325145e-9
0.3949995461220644 	 -2.2881219148499773e-9
0.3986581073580441 	 -2.288122001041557e-9
0.40235055488692917 	 -2.288122088836694e-9
0.4060772025700365 	 -2.2881221782652086e-9
0.4098383671757262 	 -2.2881222693573147e-9
0.41363436840632745 	 -2.288122362144075e-9
0.4174655289253137 	 -2.288122456657102e-9
0.4213321743847288 	 -2.288122552928352e-9
0.42523463345286816 	 -2.2881226509905064e-9
0.4291732378422158 	 -2.288122750877056e-9
0.43314832233763995 	 -2.2881228526218704e-9
0.43716022482485045 	 -2.2881229562593537e-9
0.4412092863191189 	 -2.288123061824877e-9
0.4452958509942655 	 -2.2881231693543694e-9
0.4494202662119143 	 -2.2881232788841547e-9
0.4535828825510188 	 -2.2881233904514927e-9
0.45778405383766185 	 -2.2881235040944522e-9
0.4620241371751312 	 -2.2881236198515233e-9
0.4663034929742731 	 -2.2881237377618816e-9
0.47062248498412823 	 -2.2881238578658053e-9
0.47498148032285015 	 -2.2881239802041015e-9
0.4793808495089109 	 -2.2881241048180915e-9
0.4838209664925956 	 -2.2881242317502358e-9
0.488302208687788 	 -2.2881243610438036e-9
0.4928249570040514 	 -2.2881244927425216e-9
0.49738959587900644 	 -2.288124626891052e-9
0.5019965133110081 	 -2.288124763535209e-9
0.5066461008921267 	 -2.288124902721364e-9
0.5113387538414326 	 -2.2881250444965404e-9
0.5160748710385908 	 -2.2881251889091174e-9
0.5208548550577662 	 -2.2881253360082633e-9
0.5256791122018423 	 -2.2881254858436854e-9
0.5305480525369572 	 -2.2881256384662955e-9
0.5354620899273608 	 -2.2881257939281998e-9
0.5404216420705915 	 -2.2881259522820825e-9
0.5454271305329833 	 -2.2881261135815046e-9
0.5504789807854971 	 -2.2881262778815446e-9
0.5555776222398876 	 -2.288126445238076e-9
0.5607234882852032 	 -2.288126615707636e-9
0.5659170163246243 	 -2.2881267893482503e-9
0.5711586478126431 	 -2.288126966219132e-9
0.5764488282925877 	 -2.2881271463801517e-9
0.5817880074344934 	 -2.2881273298923283e-9
0.5871766390733255 	 -2.288127516818343e-9
0.5926151812475554 	 -2.2881277072216616e-9
0.598104096238094 	 -2.288127901166594e-9
0.6036438506075867 	 -2.288128098719265e-9
0.609234915240071 	 -2.2881282999469623e-9
0.6148777653810024 	 -2.288128504917705e-9
0.6205728806776502 	 -2.2881287137010483e-9
0.6263207452198689 	 -2.288128926368274e-9
0.6321218475812452 	 -2.2881291429914994e-9
0.6379766808606282 	 -2.2881293636439156e-9
0.643885742724042 	 -2.288129588400843e-9
0.649849535446989 	 -2.2881298173387268e-9
0.6558685659571432 	 -2.288130050534886e-9
0.6619433458774393 	 -2.288130288068595e-9
0.6680743915695614 	 -2.2881305300208757e-9
0.6742622241778342 	 -2.2881307764736387e-9
0.6805073696735208 	 -2.288131027510258e-9
0.6868103588995303 	 -2.2881312832164326e-9
0.6931717276155405 	 -2.288131543679018e-9
0.6995920165435373 	 -2.288131808985938e-9
0.7060717714137773 	 -2.2881320792275384e-9
0.7126115430111748 	 -2.2881323544959028e-9
0.7192118872221189 	 -2.28813263488411e-9
0.7258733650817251 	 -2.288132920487172e-9
0.732596542821523 	 -2.2881332114025923e-9
0.7393819919175867 	 -2.2881335077290614e-9
0.746230289139111 	 -2.2881338095666432e-9
0.7531420165974372 	 -2.288134117018296e-9
0.7601177617955328 	 -2.288134430188667e-9
0.7671581176779302 	 -2.2881347491835524e-9
0.7742636826811271 	 -2.2881350741112867e-9
0.7814350607844545 	 -2.288135405082744e-9
0.7886728615614153 	 -2.2881357422100433e-9
0.7959777002314984 	 -2.2881360856071317e-9
0.8033501977124734 	 -2.2881364353912067e-9
0.8107909806731688 	 -2.2881367916811667e-9
0.8183006815867393 	 -2.2881371545972836e-9
0.8258799387844268 	 -2.2881375242629936e-9
0.8335293965098194 	 -2.2881379008042856e-9
0.8412497049736117 	 -2.2881382843485146e-9
0.8490415204088748 	 -2.2881386750254915e-9
0.856905505126835 	 -2.2881390729685772e-9
0.8648423275731723 	 -2.288139478312833e-9
0.8728526623848377 	 -2.288139891195068e-9
0.880937190447399 	 -2.288140311755953e-9
0.8890965989529159 	 -2.2881407401386693e-9
0.8973315814583523 	 -2.288141176487951e-9
0.905642837944529 	 -2.2881416209517537e-9
0.914031074875623 	 -2.288142073681735e-9
0.9224970052592174 	 -2.2881425348313144e-9
0.9310413487069077 	 -2.2881430045561837e-9
0.9396648314954694 	 -2.2881434830165247e-9
0.9483681866285923 	 -2.2881439703749866e-9
0.9571521538991863 	 -2.2881444667960286e-9
0.9660174799522646 	 -2.2881449724482506e-9
0.9749649183484088 	 -2.288145487504017e-9
0.983995229627823 	 -2.2881460121375683e-9
0.9931091813749796 	 -2.2881465465261946e-9
1.0023075482838653 	 -2.2881471032901375e-9
1.0115911122238297 	 -2.28814765797054e-9
1.0209606623060468 	 -2.288148222964278e-9
1.030416994950588 	 -2.2881487984635793e-9
1.03996091395412 	 -2.288149384664396e-9
1.0495932305582274 	 -2.288149981764799e-9
1.05931476351837 	 -2.2881505899669733e-9
1.0691263391734764 	 -2.2881512094784755e-9
1.079028791516184 	 -2.2881518405093734e-9
1.0890229622637302 	 -2.288152483272574e-9
1.099109700929497 	 -2.2881531379870483e-9
1.1092898648952227 	 -2.2881538048753816e-9
1.1195643194838785 	 -2.2881544841625986e-9
1.1299339380332223 	 -2.2881551760791115e-9
1.1403996019700327 	 -2.2881558808608617e-9
1.1509622008850322 	 -2.2881565987464816e-9
1.161622632608502 	 -2.288157329978446e-9
1.172381803286599 	 -2.2881580748061547e-9
1.1832406274583787 	 -2.288158833482608e-9
1.194200028133532 	 -2.2881596062637168e-9
1.2052609368708425 	 -2.288160393412046e-9
1.216424293857368 	 -2.2881611951955845e-9
1.2276910479883596 	 -2.2881620118851894e-9
1.2390621569479163 	 -2.288162843756757e-9
1.250538587290391 	 -2.2881636910938117e-9
1.2621213145225472 	 -2.2881645541836594e-9
1.2738113231864785 	 -2.2881654333173107e-9
1.2856096069432956 	 -2.2881663287939615e-9
1.2975171686575875 	 -2.288167240918273e-9
1.3095350204826672 	 -2.2881681699982082e-9
1.321664183946605 	 -2.288169116348541e-9
1.333905690039059 	 -2.288170080291931e-9
1.3462605792989102 	 -2.288171062154735e-9
1.35872990190271 	 -2.288172062268092e-9
1.371314717753945 	 -2.2881730809727285e-9
1.3840160965731314 	 -2.288174118614651e-9
1.39683511798874 	 -2.288175175543666e-9
1.4097728716289668 	 -2.2881762521181927e-9
1.4228304572143526 	 -2.2881773487047053e-9
1.4360089846512603 	 -2.288178465673696e-9
1.4493095741262165 	 -2.288179603401992e-9
1.46273335620113 	 -2.2881807622770842e-9
1.47628147190939 	 -2.288181942692086e-9
1.4899550728528546 	 -2.2881831450449644e-9
1.503755321299738 	 -2.2881843697444393e-9
1.5176833902834053 	 -2.2881856172073006e-9
1.53174046370208 	 -2.288186887854716e-9
1.5459277364194774 	 -2.288188182116212e-9
1.5602464143663688 	 -2.288189500432657e-9
1.5746977146430863 	 -2.28819084325045e-9
1.5892828656229778 	 -2.2881922110221564e-9
1.6040031070568201 	 -2.288193604213248e-9
1.6188596901781982 	 -2.2881950232969167e-9
1.6338538778098612 	 -2.2881964687513798e-9
1.6489869444710645 	 -2.288197941065692e-9
1.6642601764859035 	 -2.288199440740459e-9
1.6796748720926535 	 -2.2882009682820356e-9
1.6952323415541204 	 -2.28820252420492e-9
1.7109339072690144 	 -2.288204109038578e-9
1.7267809038843556 	 -2.2882057233206072e-9
1.742774678408919 	 -2.2882073675946956e-9
1.7589165903277328 	 -2.2882090424185634e-9
1.775208011717635 	 -2.2882107483615998e-9
1.7916503273639006 	 -2.2882124859994105e-9
1.8082449348779512 	 -2.2882142559184355e-9
1.8249932448161523 	 -2.2882160587211523e-9
1.8418966807997113 	 -2.2882178950176678e-9
1.8589566796356871 	 -2.2882197654256873e-9
1.8761746914391206 	 -2.2882216705801026e-9
1.893552179756295 	 -2.2882236111275087e-9
1.911090621689138 	 -2.2882255877215526e-9
1.9287915080207783 	 -2.2882276010301035e-9
1.9466563433422621 	 -2.28822965173811e-9
1.9646866461804458 	 -2.288231740538304e-9
1.982883949127071 	 -2.288233868132904e-9
2.001249798969037 	 -2.288236035244591e-9
2.019785756819879 	 -2.2882382426077154e-9
2.0384933982524633 	 -2.288240490964315e-9
2.0573743134329128 	 -2.288242781074249e-9
2.0764301072557747 	 -2.2882451137147496e-9
2.095662399480433 	 -2.2882474896721834e-9
2.115072824868795 	 -2.288249909746318e-9
2.1346630333242445 	 -2.2882523747599763e-9
2.154434690031884 	 -2.2882548855472664e-9
2.17438947560008 	 -2.2882574429521914e-9
2.194529086203314 	 -2.2882600478417945e-9
2.2148552337263596 	 -2.288262701099904e-9
2.2353696459097954 	 -2.288265403619528e-9
2.256074066496861 	 -2.288268156311464e-9
2.2769702553816797 	 -2.2882709601106095e-9
2.2980599887588515 	 -2.288273815963137e-9
2.3193450592744282 	 -2.2882767248273886e-9
2.340827276178293 	 -2.288279687689203e-9
2.362508465477947 	 -2.288282705552287e-9
2.38439047009372 	 -2.288285779431487e-9
2.4064751500154244 	 -2.28828891036413e-9
2.428764382460451 	 -2.288292099412336e-9
2.4512600620333385 	 -2.2882953476501914e-9
2.4739641008868136 	 -2.2882986561681006e-9
2.4968784288843264 	 -2.2883020260870835e-9
2.5200049937640925 	 -2.2883054585447767e-9
2.543345761304649 	 -2.2883089546915348e-9
2.5669027154919504 	 -2.288312515707524e-9
2.590677858688008 	 -2.2883161427997946e-9
2.6146732118010916 	 -2.2883198371884734e-9
2.6388908144575107 	 -2.288323600116309e-9
2.663332725174982 	 -2.288327432861919e-9
2.6880010215376062 	 -2.288331336719673e-9
2.7128978003724664 	 -2.288335312998976e-9
2.7380251779278577 	 -2.288339363044933e-9
2.7633852900531704 	 -2.288343488226494e-9
2.7889802923804408 	 -2.288347689925808e-9
2.8148123605075797 	 -2.2883519695550837e-9
2.8408836901833032 	 -2.288356328563447e-9
2.8671964974937696 	 -2.288360768416895e-9
2.893753019050951 	 -2.2883652906024165e-9
2.9205555121827462 	 -2.2883698966508694e-9
2.9476062551248576 	 -2.28837458811823e-9
2.97490754721444 	 -2.2883793665771827e-9
3.002461709085549 	 -2.288384233637827e-9
3.030271082866397 	 -2.288389190946156e-9
3.058338032378433 	 -2.2883942401665057e-9
3.0866649433372735 	 -2.2883993829896824e-9
3.115254223555487 	 -2.288404621154219e-9
3.1441083031472647 	 -2.2884099564233986e-9
3.173229634734977 	 -2.2884153905826972e-9
3.202620693657652 	 -2.2884209254657103e-9
3.2322839781813792 	 -2.288426562941509e-9
3.262222009711669 	 -2.2884323048970366e-9
3.292437333007769 	 -2.2884381532562898e-9
3.3229325163989727 	 -2.2884441099941315e-9
3.3537101520029307 	 -2.288450177108302e-9
3.384772855945981 	 -2.2884563566243393e-9
3.4161232685855274 	 -2.2884626506259724e-9
3.4477640547344643 	 -2.2884690612348334e-9
3.4796979038876925 	 -2.2884755905957127e-9
3.5119275304507296 	 -2.2884822408999605e-9
3.5444556739704347 	 -2.2884890143914028e-9
3.5772850993678724 	 -2.288495913338624e-9
3.610418597173337 	 -2.288502940043867e-9
3.6438589837635456 	 -2.2885100968759374e-9
3.6776091016010324 	 -2.2885173862389736e-9
3.711671819475766 	 -2.288524810563189e-9
3.746050032748992 	 -2.2885323723405693e-9
3.7807466635993494 	 -2.288540074117065e-9
3.8157646612712495 	 -2.288547918467139e-9
3.8511070023255707 	 -2.288555908010743e-9
3.886776690892667 	 -2.288564045439859e-9
3.9227767589277187 	 -2.288572333481266e-9
3.9591102664684588 	 -2.288580774892801e-9
3.9957803018952704 	 -2.2885893725055877e-9
4.032789982193707 	 -2.2885981292075563e-9
4.070142453219438 	 -2.288607047918328e-9
4.1078408899656464 	 -2.2886161316166503e-9
4.145888496832911 	 -2.2886253833539687e-9
4.184288507901582 	 -2.288634806216964e-9
4.223044187206674 	 -2.2886444033376144e-9
4.262158829015324 	 -2.2886541779372485e-9
4.301635758106795 	 -2.2886641332892107e-9
4.341478330055092 	 -2.288674272705054e-9
4.381689931514191 	 -2.288684599578957e-9
4.422273980505899 	 -2.2886951173794248e-9
4.463233926710396 	 -2.2887058296074733e-9
4.504573251759458 	 -2.288716739823733e-9
4.5462954695324 	 -2.288727851685819e-9
4.5884041264547575 	 -2.288739168900649e-9
4.630902801799739 	 -2.288750695219964e-9
4.673795107992462 	 -2.288762434495189e-9
4.717084690917018 	 -2.2887743906568183e-9
4.760775230226369 	 -2.2887865676777005e-9
4.80487043965513 	 -2.288798969603492e-9
4.849374067335235 	 -2.2888116005812116e-9
4.894289896114531 	 -2.2888244648105904e-9
4.9396217438783205 	 -2.2888375665473612e-9
4.985373463873895 	 -2.2888509101589884e-9
5.031548945038053 	 -2.2888645000831462e-9
5.078152112327674 	 -2.288878340806e-9
5.125186927053331 	 -2.2888924369136337e-9
5.172657387216019 	 -2.2889067931151466e-9
5.220567527846977 	 -2.288921414178413e-9
5.268921421350674 	 -2.2889363049350247e-9
5.3177231778509695 	 -2.288951470356105e-9
5.3669769455404746 	 -2.288966915488658e-9
5.416686911033152 	 -2.288982645426408e-9
5.466857299720182 	 -2.288998665390093e-9
5.517492376129126 	 -2.289014980704164e-9
5.5685964442864115 	 -2.2890315967438432e-9
