# This is an integration map on mu of the ξ multipole integratedgp_doppler GR effect.
# The following parameters were used for this computation: 
# CLASS Power Spectrum input file : "../../test/datatest/file_pk.txt"
# F window function input file : "../../test/datatest/F_REFERENCE.txt"
# CLASS Background input file: "../../test/datatest/WideA_ZA_background.dat"
# 	 z_min = 0.05 	 z_max = 0.2
# 	 k_min = 1.0e-8 	 k_max = 10.0
# 	 h_0 = 0.7 	 Ω_b = 0.0489 	 Ω_cdm = 0.25102 	 Ω_M0 = 0.29992
# 	 comoving s_min = 148.1920001465757 Mpc/h_0
# 	 comoving s_max = 571.7022420258767 Mpc/h_0
# 	 comoving s_eff = 435.3747095690664 Mpc/h_0
# 	 comoving z_eff = 0.15045636096023224 
# 	 Volume of the survey V_survey = 3.845366167995967e8
# 	 σ_0 = 15.593462966741178
# 	 σ_1 = 15.074895881392285
# 	 σ_2 = 100.85852368830221
# 	 σ_3 = 3735.1227501923527
# 
# computational time needed (in s) : 12.4526
# kwards passed: 
# 		use_windows = false
# 		N_μs = 50
# 
# s [Mpc/h_0] 	 	 xi
0.1 	 3.926230050792573e-8
0.10092621909870476 	 3.926230009586446e-8
0.10186101701559758 	 3.926229967613539e-8
0.10280447320933092 	 3.926229924859573e-8
0.10375666787451857 	 3.92622988131e-8
0.10471768194855202 	 3.926229836949988e-8
0.10568759711848043 	 3.926229791764461e-8
0.10666649582795393 	 3.926229745738076e-8
0.10765446128423156 	 3.926229698855167e-8
0.1086515774652538 	 3.9262296510997884e-8
0.10965792912678099 	 3.9262296024556954e-8
0.11067360180959737 	 3.926229552906328e-8
0.11169868184678232 	 3.926229502434844e-8
0.11273325637104868 	 3.926229451024093e-8
0.1137774133221491 	 3.9262293986565825e-8
0.11483124145435111 	 3.926229345314518e-8
0.1158948303439811 	 3.926229290979746e-8
0.11696827039703853 	 3.9262292356337746e-8
0.11805165285688052 	 3.926229179257788e-8
0.11914506981197756 	 3.92622912183262e-8
0.12024861420374122 	 3.926229063338753e-8
0.12136237983442408 	 3.9262290037562944e-8
0.12248646137509314 	 3.926228943064958e-8
0.12362095437367689 	 3.926228881244108e-8
0.12476595526308698 	 3.926228818272718e-8
0.1259215613694151 	 3.9262287541293864e-8
0.12708787092020585 	 3.9262286887922956e-8
0.12826498305280606 	 3.9262286222392116e-8
0.12945299782279157 	 3.926228554447498e-8
0.13065201621247213 	 3.926228485394096e-8
0.13186214013947484 	 3.926228415055517e-8
0.1330834724654075 	 3.926228343407846e-8
0.1343161170046016 	 3.926228270426689e-8
0.13556017853293686 	 3.9262281960872314e-8
0.1368157627967472 	 3.9262281203641806e-8
0.13808297652180923 	 3.92622804323177e-8
0.13936192742241424 	 3.926227964663777e-8
0.14065272421052372 	 3.926227884633466e-8
0.14195547660501012 	 3.926227803113617e-8
0.1432702953409831 	 3.926227720076508e-8
0.144597292179202 	 3.9262276354939104e-8
0.14593657991557565 	 3.9262275493370595e-8
0.14728827239075026 	 3.926227461576659e-8
0.1486524844997857 	 3.926227372182852e-8
0.15002933220192183 	 3.926227281125256e-8
0.15141893253043523 	 3.9262271883729235e-8
0.15282140360258697 	 3.9262270938943074e-8
0.15423686462966282 	 3.926226997657297e-8
0.15566543592710616 	 3.9262268996291605e-8
0.15710723892474504 	 3.926226799776583e-8
0.15856239617711376 	 3.9262266980656256e-8
0.16003103137387006 	 3.9262265944617005e-8
0.16151326935030905 	 3.9262264889295956e-8
0.16300923609797408 	 3.926226381433444e-8
0.16451905877536624 	 3.9262262719367e-8
0.166042865718753 	 3.926226160402144e-8
0.16758078645307678 	 3.9262260467918544e-8
0.1691329517029648 	 3.926225931067205e-8
0.17069949340384075 	 3.9262258131888814e-8
0.1722805447131394 	 3.9262256931167803e-8
0.17387624002162508 	 3.926225570810098e-8
0.1754867149648151 	 3.926225446227253e-8
0.17711210643450878 	 3.926225319325877e-8
0.1787525525904235 	 3.92622519006283e-8
0.18040819287193827 	 3.9262250583941534e-8
0.18207916800994628 	 3.926224924275073e-8
0.18376562003881713 	 3.9262247876599824e-8
0.18546769230846985 	 3.926224648502429e-8
0.18718552949655787 	 3.9262245067550963e-8
0.18891927762076663 	 3.926224362369793e-8
0.19066908405122523 	 3.9262242152974265e-8
0.19243509752303312 	 3.92622406548801e-8
0.1942174681489026 	 3.926223912890632e-8
0.1960163474319185 	 3.926223757453431e-8
0.19783188827841644 	 3.926223599123574e-8
0.1996642450109794 	 3.9262234378472465e-8
0.20151357338155576 	 3.926223273569651e-8
0.20338003058469817 	 3.926223106234948e-8
0.20526377527092515 	 3.926222935786284e-8
0.2071649675602069 	 3.926222762165723e-8
0.20908376905557505 	 3.9262225853142755e-8
0.21102034285685956 	 3.926222405171818e-8
0.21297485357455204 	 3.926222221677165e-8
0.214947467343798 	 3.9262220347679445e-8
0.21693835183851842 	 3.926221844380638e-8
0.2189476762856621 	 3.9262216504505185e-8
0.22097561147959022 	 3.926221452911683e-8
0.2230223297965938 	 3.926221251697015e-8
0.22508800520954617 	 3.9262210467381403e-8
0.2271728133026905 	 3.9262208379654154e-8
0.22927693128656493 	 3.926220625307923e-8
0.2314005380130653 	 3.926220408693406e-8
0.23354381399064789 	 3.9262201880482866e-8
0.23570694139967277 	 3.926219963297615e-8
0.23789010410788933 	 3.926219734365042e-8
0.24009348768606525 	 3.926219501172805e-8
0.24231727942375994 	 3.9262192636416874e-8
0.2445616683452446 	 3.926219021690984e-8
0.24682684522556925 	 3.926218775238495e-8
0.24911300260677885 	 3.926218524200483e-8
0.2514203348142797 	 3.9262182684916965e-8
0.253749037973357 	 3.9262180080252476e-8
0.25609931002584585 	 3.926217742712626e-8
0.2584713507469564 	 3.926217472463664e-8
0.26086536176225483 	 3.926217197186522e-8
0.26328154656480207 	 3.926216916787682e-8
0.26572011053245054 	 3.926216631171866e-8
0.2681812609453015 	 3.926216340242041e-8
0.27066520700332414 	 3.926216043899358e-8
0.2731721598441377 	 3.926215742043159e-8
0.27570233256095833 	 3.9262154345709364e-8
0.2782559402207124 	 3.9262151213782516e-8
0.2808331998823172 	 3.9262148023586955e-8
0.2834343306151309 	 3.92621447740387e-8
0.2860595535175743 	 3.9262141464033646e-8
0.2887090917359235 	 3.9262138092447726e-8
0.2913831704832787 	 3.926213465813518e-8
0.2940820170587063 	 3.926213115992889e-8
0.29680586086656024 	 3.926212759663974e-8
0.2995549334359814 	 3.926212396705668e-8
0.3023294684405778 	 3.92621202699463e-8
0.3051297017182869 	 3.926211650405218e-8
0.3079558712914226 	 3.926211266809404e-8
0.3108082173869064 	 3.926210876076808e-8
0.31368698245668775 	 3.926210478074566e-8
0.3165924111983522 	 3.926210072667472e-8
0.3195247505759212 	 3.9262096597177764e-8
0.3224842498408441 	 3.926209239085184e-8
0.3254711605531848 	 3.926208810626733e-8
0.32848573660300445 	 3.9262083741967365e-8
0.33152823423194244 	 3.926207929646816e-8
0.33459891205499737 	 3.926207476825912e-8
0.3376980310825091 	 3.926207015580124e-8
0.34082585474234517 	 3.926206545752689e-8
0.3439826489022925 	 3.9262060671839465e-8
0.3471686818926561 	 3.926205579711316e-8
0.3503842245290674 	 3.926205083169174e-8
0.35362955013550423 	 3.926204577388947e-8
0.356904934567523 	 3.926204062198895e-8
0.3602106562357071 	 3.926203537424092e-8
0.36354699612933195 	 3.92620300288629e-8
0.36691423784024924 	 3.9262024584038904e-8
0.37031266758699266 	 3.926201903791934e-8
0.3737425742391064 	 3.9262013388621044e-8
0.3772042493416998 	 3.9262007634226325e-8
0.3806979871402286 	 3.9262001772780585e-8
0.38422408460550594 	 3.926199580229223e-8
0.3877828414589457 	 3.9261989720732054e-8
0.39137456019803846 	 3.9261983526033185e-8
0.3949995461220644 	 3.926197721609071e-8
0.3986581073580441 	 3.9261970788761086e-8
0.40235055488692917 	 3.926196424186023e-8
0.4060772025700365 	 3.926195757316303e-8
0.4098383671757262 	 3.926195078040415e-8
0.41363436840632745 	 3.9261943861277424e-8
0.4174655289253137 	 3.926193681343309e-8
0.4213321743847288 	 3.926192963447745e-8
0.42523463345286816 	 3.926192232197266e-8
0.4291732378422158 	 3.9261914873436926e-8
0.43314832233763995 	 3.926190728634325e-8
0.43716022482485045 	 3.9261899558117846e-8
0.4412092863191189 	 3.926189168613715e-8
0.4452958509942655 	 3.926188366772889e-8
0.4494202662119143 	 3.926187550016907e-8
0.4535828825510188 	 3.9261867180684454e-8
0.45778405383766185 	 3.926185870645142e-8
0.4620241371751312 	 3.9261850074594615e-8
0.4663034929742731 	 3.926184128218332e-8
0.47062248498412823 	 3.926183232623022e-8
0.47498148032285015 	 3.9261823203691615e-8
0.4793808495089109 	 3.9261813911468075e-8
0.4838209664925956 	 3.926180444640375e-8
0.488302208687788 	 3.9261794805284776e-8
0.4928249570040514 	 3.9261784984837116e-8
0.49738959587900644 	 3.926177498172613e-8
0.5019965133110081 	 3.9261764792558063e-8
0.5066461008921267 	 3.926175441387803e-8
0.5113387538414326 	 3.9261743842166656e-8
0.5160748710385908 	 3.926173307383721e-8
0.5208548550577662 	 3.92617221052358e-8
0.5256791122018423 	 3.926171093264067e-8
0.5305480525369572 	 3.9261699552260755e-8
0.5354620899273608 	 3.9261687960235824e-8
0.5404216420705915 	 3.926167615263393e-8
0.5454271305329833 	 3.926166412544932e-8
0.5504789807854971 	 3.926165187459868e-8
0.5555776222398876 	 3.92616393959203e-8
0.5607234882852032 	 3.926162668517722e-8
0.5659170163246243 	 3.926161373805854e-8
0.5711586478126431 	 3.926160055017271e-8
0.5764488282925877 	 3.9261587117046e-8
0.5817880074344934 	 3.926157343412178e-8
0.5871766390733255 	 3.92615594967607e-8
0.5926151812475554 	 3.926154530023976e-8
0.598104096238094 	 3.926153083974743e-8
0.6036438506075867 	 3.926151611038054e-8
0.609234915240071 	 3.9261501107141364e-8
0.6148777653810024 	 3.9261485824945275e-8
0.6205728806776502 	 3.9261470258613685e-8
0.6263207452198689 	 3.9261454402870584e-8
0.6321218475812452 	 3.926143825233897e-8
0.6379766808606282 	 3.9261421801541324e-8
0.643885742724042 	 3.9261405044904046e-8
0.649849535446989 	 3.926138797675249e-8
0.6558685659571432 	 3.926137059130197e-8
0.6619433458774393 	 3.9261352882660976e-8
0.6680743915695614 	 3.926133484483128e-8
0.6742622241778342 	 3.926131647170183e-8
0.6805073696735208 	 3.9261297757042356e-8
0.6868103588995303 	 3.926127869450765e-8
0.6931717276155405 	 3.9261259277641045e-8
0.6995920165435373 	 3.926123949987143e-8
0.7060717714137773 	 3.926121935450087e-8
0.7126115430111748 	 3.9261198834704045e-8
0.7192118872221189 	 3.9261177933529063e-8
0.7258733650817251 	 3.92611566438994e-8
0.732596542821523 	 3.926113495861349e-8
0.7393819919175867 	 3.9261112870335796e-8
0.746230289139111 	 3.926109037158512e-8
0.7531420165974372 	 3.9261067454732346e-8
0.7601177617955328 	 3.926104411200291e-8
0.7671581176779302 	 3.926102033547971e-8
0.7742636826811271 	 3.926099611712382e-8
0.7814350607844545 	 3.926097144875372e-8
0.7886728615614153 	 3.926094632203476e-8
0.7959777002314984 	 3.9260920728469184e-8
0.8033501977124734 	 3.926089465939455e-8
0.8107909806731688 	 3.926086810598215e-8
0.8183006815867393 	 3.9260841059246814e-8
0.8258799387844268 	 3.926081351004006e-8
0.8335293965098194 	 3.926078544904702e-8
0.8412497049736117 	 3.926075686677062e-8
0.8490415204088748 	 3.9260727753541784e-8
0.856905505126835 	 3.9260698099504785e-8
0.8648423275731723 	 3.9260667894620634e-8
0.8728526623848377 	 3.926063712867674e-8
0.880937190447399 	 3.926060579128525e-8
0.8890965989529159 	 3.9260573871851896e-8
0.8973315814583523 	 3.926054135958056e-8
0.905642837944529 	 3.926050824346814e-8
0.914031074875623 	 3.9260474512318694e-8
0.9224970052592174 	 3.9260440154742117e-8
0.9310413487069077 	 3.9260405159138845e-8
0.9396648314954694 	 3.9260369513673235e-8
0.9483681866285923 	 3.926033320631105e-8
0.9571521538991863 	 3.926029622480724e-8
0.9660174799522646 	 3.926025855667188e-8
0.9749649183484088 	 3.9260220189170614e-8
0.983995229627823 	 3.926018110936007e-8
0.9931091813749796 	 3.92601413040595e-8
1.0023075482838653 	 3.926010094492674e-8
1.0115911122238297 	 3.9260059651549685e-8
1.0209606623060468 	 3.926001759173171e-8
1.030416994950588 	 3.92599747513221e-8
1.03996091395412 	 3.925993111585248e-8
1.0495932305582274 	 3.925988667054881e-8
1.05931476351837 	 3.925984140035179e-8
1.0691263391734764 	 3.925979528991656e-8
1.079028791516184 	 3.9259748323676165e-8
1.0890229622637302 	 3.9259700485869956e-8
1.099109700929497 	 3.925965176044986e-8
1.1092898648952227 	 3.925960213101769e-8
1.1195643194838785 	 3.925955158080546e-8
1.1299339380332223 	 3.925950009272124e-8
1.1403996019700327 	 3.925944764934401e-8
1.1509622008850322 	 3.92593942330052e-8
1.161622632608502 	 3.925933982581479e-8
1.172381803286599 	 3.9259284409530774e-8
1.1832406274583787 	 3.9259227965513564e-8
1.194200028133532 	 3.9259170474807424e-8
1.2052609368708425 	 3.925911191807836e-8
1.216424293857368 	 3.925905227562101e-8
1.2276910479883596 	 3.925899152737657e-8
1.2390621569479163 	 3.925892965294363e-8
1.250538587290391 	 3.925886663152186e-8
1.2621213145225472 	 3.9258802441842486e-8
1.2738113231864785 	 3.925873706226106e-8
1.2856096069432956 	 3.9258670470857914e-8
1.2975171686575875 	 3.9258602645333564e-8
1.3095350204826672 	 3.925853356292528e-8
1.321664183946605 	 3.925846320051046e-8
1.333905690039059 	 3.9258391534507815e-8
1.3462605792989102 	 3.925831854081046e-8
1.35872990190271 	 3.9258244194912814e-8
1.371314717753945 	 3.925816847171748e-8
1.3840160965731314 	 3.925809134558836e-8
1.39683511798874 	 3.925801279054974e-8
1.4097728716289668 	 3.925793278036875e-8
1.4228304572143526 	 3.925785128837781e-8
1.4360089846512603 	 3.9257768287413094e-8
1.4493095741262165 	 3.9257683749741745e-8
1.46273335620113 	 3.92575976469568e-8
1.47628147190939 	 3.925750995022963e-8
1.4899550728528546 	 3.925742063037064e-8
1.503755321299738 	 3.9257329657622935e-8
1.5176833902834053 	 3.92572370015252e-8
1.53174046370208 	 3.9257142630876404e-8
1.5459277364194774 	 3.9257046514124965e-8
1.5602464143663688 	 3.9256948619275425e-8
1.5746977146430863 	 3.925684891370868e-8
1.5892828656229778 	 3.9256747364079504e-8
1.6040031070568201 	 3.9256643936664214e-8
1.6188596901781982 	 3.9256538597181995e-8
1.6338538778098612 	 3.925643131051207e-8
1.6489869444710645 	 3.925632204077237e-8
1.6642601764859035 	 3.9256210751662925e-8
1.6796748720926535 	 3.92560974062673e-8
1.6952323415541204 	 3.925598196665154e-8
1.7109339072690144 	 3.925586439402474e-8
1.7267809038843556 	 3.9255744649297376e-8
1.742774678408919 	 3.9255622692906226e-8
1.7589165903277328 	 3.925549848438947e-8
1.775208011717635 	 3.925537198234054e-8
1.7916503273639006 	 3.925524314468602e-8
1.8082449348779512 	 3.925511192892958e-8
1.8249932448161523 	 3.925497829149686e-8
1.8418966807997113 	 3.925484218800928e-8
1.8589566796356871 	 3.9254703573409195e-8
1.8761746914391206 	 3.925456240149091e-8
1.893552179756295 	 3.925441862535962e-8
1.911090621689138 	 3.925427219760866e-8
1.9287915080207783 	 3.925412306981375e-8
1.9466563433422621 	 3.9253971192569396e-8
1.9646866461804458 	 3.925381651603591e-8
1.982883949127071 	 3.92536589893063e-8
2.001249798969037 	 3.925349856035352e-8
2.019785756819879 	 3.9253335176170894e-8
2.0384933982524633 	 3.925316878255411e-8
2.0573743134329128 	 3.9252999324688286e-8
2.0764301072557747 	 3.925282674702551e-8
2.095662399480433 	 3.9252650993009065e-8
2.115072824868795 	 3.925247200483595e-8
2.1346630333242445 	 3.9252289723963675e-8
2.154434690031884 	 3.925210409025513e-8
2.17438947560008 	 3.92519150425981e-8
2.194529086203314 	 3.925172251883889e-8
2.2148552337263596 	 3.925152645584679e-8
2.2353696459097954 	 3.925132679001201e-8
2.256074066496861 	 3.9251123456099616e-8
2.2769702553816797 	 3.925091638744159e-8
2.2980599887588515 	 3.925070551617375e-8
2.3193450592744282 	 3.925049077310009e-8
2.340827276178293 	 3.9250272088683514e-8
2.362508465477947 	 3.9250049391670275e-8
2.38439047009372 	 3.924982260948449e-8
2.4064751500154244 	 3.924959166817474e-8
2.428764382460451 	 3.9249356492149764e-8
2.4512600620333385 	 3.9249117004733283e-8
2.4739641008868136 	 3.924887312830662e-8
2.4968784288843264 	 3.9248624784594796e-8
2.5200049937640925 	 3.924837189332808e-8
2.543345761304649 	 3.924811437231857e-8
2.5669027154919504 	 3.9247852137761803e-8
2.590677858688008 	 3.92475851047826e-8
2.6146732118010916 	 3.924731318759392e-8
2.6388908144575107 	 3.924703629874714e-8
2.663332725174982 	 3.9246754349211655e-8
2.6880010215376062 	 3.924646724777127e-8
2.7128978003724664 	 3.924617490203445e-8
2.7380251779278577 	 3.924587721812947e-8
2.7633852900531704 	 3.9245574101738487e-8
2.7889802923804408 	 3.924526545629095e-8
2.8148123605075797 	 3.9244951182411754e-8
2.8408836901833032 	 3.9244631178721566e-8
2.8671964974937696 	 3.9244305342496824e-8
2.893753019050951 	 3.924397356991487e-8
2.9205555121827462 	 3.9243635756165916e-8
2.9476062551248576 	 3.924329179387376e-8
2.97490754721444 	 3.92429415737152e-8
3.002461709085549 	 3.92425849844321e-8
3.030271082866397 	 3.9242221912320224e-8
3.058338032378433 	 3.924185224294939e-8
3.0866649433372735 	 3.924147585979827e-8
3.115254223555487 	 3.924109264475002e-8
3.1441083031472647 	 3.9240702477136595e-8
3.173229634734977 	 3.9240305233505934e-8
3.202620693657652 	 3.923990078779949e-8
3.2322839781813792 	 3.9239489013083786e-8
3.262222009711669 	 3.923906978159944e-8
3.292437333007769 	 3.923864296263987e-8
3.3229325163989727 	 3.923820842213626e-8
3.3537101520029307 	 3.923776602311457e-8
3.384772855945981 	 3.923731562836491e-8
3.4161232685855274 	 3.9236857099126036e-8
3.4477640547344643 	 3.9236390293251654e-8
3.4796979038876925 	 3.9235915065720695e-8
3.5119275304507296 	 3.923543126901902e-8
3.5444556739704347 	 3.923493875482709e-8
3.5772850993678724 	 3.923443737318332e-8
3.610418597173337 	 3.9233926970228703e-8
3.6438589837635456 	 3.923340738852932e-8
3.6776091016010324 	 3.923287846820722e-8
3.711671819475766 	 3.923234004900146e-8
3.746050032748992 	 3.9231791967393655e-8
3.7807466635993494 	 3.9231234056044535e-8
3.8157646612712495 	 3.9230666144046306e-8
3.8511070023255707 	 3.923008806016967e-8
3.886776690892667 	 3.92294996310827e-8
3.9227767589277187 	 3.922890067833048e-8
3.9591102664684588 	 3.9228291020104475e-8
3.9957803018952704 	 3.9227670474017133e-8
4.032789982193707 	 3.922703885525139e-8
4.070142453219438 	 3.922639597499279e-8
4.1078408899656464 	 3.922574164012288e-8
4.145888496832911 	 3.922507565530009e-8
4.184288507901582 	 3.922439782315555e-8
4.223044187206674 	 3.9223707942947236e-8
4.262158829015324 	 3.922300580899726e-8
4.301635758106795 	 3.9222291215798785e-8
4.341478330055092 	 3.922156395579572e-8
4.381689931514191 	 3.922082381497783e-8
4.422273980505899 	 3.9220070573510576e-8
4.463233926710396 	 3.921930401050548e-8
4.504573251759458 	 3.9218523903856165e-8
4.5462954695324 	 3.921773002697919e-8
4.5884041264547575 	 3.9216922146499227e-8
4.630902801799739 	 3.921610002881338e-8
4.673795107992462 	 3.921526343653612e-8
4.717084690917018 	 3.9214412125893285e-8
4.760775230226369 	 3.921354584966956e-8
4.80487043965513 	 3.921266436000481e-8
4.849374067335235 	 3.921176740496334e-8
4.894289896114531 	 3.921085472435165e-8
4.9396217438783205 	 3.9209926053525e-8
4.985373463873895 	 3.9208981125930083e-8
5.031548945038053 	 3.920801966938224e-8
5.078152112327674 	 3.920704140700392e-8
5.125186927053331 	 3.9206046058232385e-8
5.172657387216019 	 3.920503333937213e-8
5.220567527846977 	 3.920400296020269e-8
5.268921421350674 	 3.920295462529554e-8
5.3177231778509695 	 3.9201888036441204e-8
5.3669769455404746 	 3.9200802892447914e-8
5.416686911033152 	 3.919969888365492e-8
5.466857299720182 	 3.919857569563936e-8
5.517492376129126 	 3.919743300962606e-8
5.5685964442864115 	 3.919627050010106e-8
5.620173848083186 	 3.919508783467201e-8
5.672228971644543 	 3.919388468329683e-8
5.72476623970218 	 3.9192660708887495e-8
5.777790117970504 	 3.9191415563152224e-8
5.831305113526222 	 3.91901488952598e-8
5.885315775191449 	 3.9188860350329395e-8
5.939826693920357 	 3.918754956368505e-8
5.99484250318941 	 3.9186216169802386e-8
6.050367879391222 	 3.918485979859776e-8
6.106407542232041 	 3.918348006747208e-8
6.1629662551329405 	 3.918207658906225e-8
6.220048825634712 	 3.91806489739133e-8
6.277660105806501 	 3.917919682448753e-8
6.335804992658251 	 3.917771973665785e-8
