# This is an integration map on mu of the ξ multipole localgp_integratedgp GR effect.
# The following parameters were used for this computation: 
# CLASS Power Spectrum input file : "../../test/datatest/file_pk.txt"
# F window function input file : "../../test/datatest/F_REFERENCE.txt"
# CLASS Background input file: "../../test/datatest/WideA_ZA_background.dat"
# 	 z_min = 0.05 	 z_max = 0.2
# 	 k_min = 1.0e-8 	 k_max = 10.0
# 	 h_0 = 0.7 	 Ω_b = 0.0489 	 Ω_cdm = 0.25102 	 Ω_M0 = 0.29992
# 	 comoving s_min = 148.1920001465757 Mpc/h_0
# 	 comoving s_max = 571.7022420258767 Mpc/h_0
# 	 comoving s_eff = 435.3747095690664 Mpc/h_0
# 	 comoving z_eff = 0.15045636096023224 
# 	 Volume of the survey V_survey = 3.845366167995967e8
# 	 σ_0 = 15.593462966741178
# 	 σ_1 = 15.074895881392285
# 	 σ_2 = 100.85852368830221
# 	 σ_3 = 3735.1227501923527
# 
# computational time needed (in s) : 11.8987
# kwards passed: 
# 		use_windows = false
# 		N_μs = 50
# 
# s [Mpc/h_0] 	 	 xi
0.1 	 -2.2881175681885872e-9
0.10092621909870476 	 -2.288117573508411e-9
0.10186101701559758 	 -2.288117578927242e-9
0.10280447320933092 	 -2.288117584446938e-9
0.10375666787451857 	 -2.2881175900693723e-9
0.10471768194855202 	 -2.2881175957964425e-9
0.10568759711848043 	 -2.288117601630067e-9
0.10666649582795393 	 -2.2881176075722374e-9
0.10765446128423156 	 -2.2881176136249818e-9
0.1086515774652538 	 -2.2881176197903547e-9
0.10965792912678099 	 -2.2881176260704505e-9
0.11067360180959737 	 -2.288117632467414e-9
0.11169868184678232 	 -2.28811763898342e-9
0.11273325637104868 	 -2.288117645620664e-9
0.1137774133221491 	 -2.2881176523814205e-9
0.11483124145435111 	 -2.2881176592679854e-9
0.1158948303439811 	 -2.28811766628269e-9
0.11696827039703853 	 -2.2881176734279236e-9
0.11805165285688052 	 -2.288117680706124e-9
0.11914506981197756 	 -2.2881176881197614e-9
0.12024861420374122 	 -2.2881176956713397e-9
0.12136237983442408 	 -2.2881177033634444e-9
0.12248646137509314 	 -2.2881177111986907e-9
0.12362095437367689 	 -2.288117719179731e-9
0.12476595526308698 	 -2.2881177273092784e-9
0.1259215613694151 	 -2.2881177355901103e-9
0.12708787092020585 	 -2.288117744025029e-9
0.12826498305280606 	 -2.2881177526169e-9
0.12945299782279157 	 -2.288117761368653e-9
0.13065201621247213 	 -2.2881177702832675e-9
0.13186214013947484 	 -2.2881177793637507e-9
0.1330834724654075 	 -2.2881177886132053e-9
0.1343161170046016 	 -2.2881177980347867e-9
0.13556017853293686 	 -2.288117807631676e-9
0.1368157627967472 	 -2.2881178174071403e-9
0.13808297652180923 	 -2.288117827364512e-9
0.13936192742241424 	 -2.288117837507174e-9
0.14065272421052372 	 -2.288117847838557e-9
0.14195547660501012 	 -2.2881178583621937e-9
0.1432702953409831 	 -2.288117869081661e-9
0.144597292179202 	 -2.288117880000585e-9
0.14593657991557565 	 -2.2881178911226847e-9
0.14728827239075026 	 -2.288117902451752e-9
0.1486524844997857 	 -2.2881179139916313e-9
0.15002933220192183 	 -2.2881179257462285e-9
0.15141893253043523 	 -2.2881179377195603e-9
0.15282140360258697 	 -2.2881179499156995e-9
0.15423686462966282 	 -2.2881179623387677e-9
0.15566543592710616 	 -2.288117974993e-9
0.15710723892474504 	 -2.2881179878827118e-9
0.15856239617711376 	 -2.288118001012266e-9
0.16003103137387006 	 -2.2881180143861184e-9
0.16151326935030905 	 -2.28811802800884e-9
0.16300923609797408 	 -2.2881180418850525e-9
0.16451905877536624 	 -2.288118056019452e-9
0.166042865718753 	 -2.2881180704168614e-9
0.16758078645307678 	 -2.288118085082185e-9
0.1691329517029648 	 -2.2881181000203813e-9
0.17069949340384075 	 -2.2881181152365304e-9
0.1722805447131394 	 -2.2881181307358296e-9
0.17387624002162508 	 -2.2881181465235315e-9
0.1754867149648151 	 -2.2881181626049806e-9
0.17711210643450878 	 -2.288118178985671e-9
0.1787525525904235 	 -2.2881181956711765e-9
0.18040819287193827 	 -2.288118212667135e-9
0.18207916800994628 	 -2.2881182299793332e-9
0.18376562003881713 	 -2.288118247613687e-9
0.18546769230846985 	 -2.288118265576155e-9
0.18718552949655787 	 -2.2881182838728343e-9
0.18891927762076663 	 -2.2881183025099758e-9
0.19066908405122523 	 -2.2881183214939115e-9
0.19243509752303312 	 -2.2881183408310508e-9
0.1942174681489026 	 -2.2881183605279975e-9
0.1960163474319185 	 -2.288118380591464e-9
0.19783188827841644 	 -2.2881184010282306e-9
0.1996642450109794 	 -2.288118421845245e-9
0.20151357338155576 	 -2.2881184430496137e-9
0.20338003058469817 	 -2.28811846464853e-9
0.20526377527092515 	 -2.2881184866493e-9
0.2071649675602069 	 -2.2881185090594344e-9
0.20908376905557505 	 -2.2881185318865653e-9
0.21102034285685956 	 -2.288118555138401e-9
0.21297485357455204 	 -2.288118578822854e-9
0.214947467343798 	 -2.2881186029480164e-9
0.21693835183851842 	 -2.2881186275220523e-9
0.2189476762856621 	 -2.2881186525532867e-9
0.22097561147959022 	 -2.2881186780502733e-9
0.2230223297965938 	 -2.288118704021676e-9
0.22508800520954617 	 -2.288118730476271e-9
0.2271728133026905 	 -2.288118757423081e-9
0.22927693128656493 	 -2.288118784871287e-9
0.2314005380130653 	 -2.2881188128301807e-9
0.23354381399064789 	 -2.2881188413092453e-9
0.23570694139967277 	 -2.2881188703182187e-9
0.23789010410788933 	 -2.288118899866941e-9
0.24009348768606525 	 -2.2881189299653975e-9
0.24231727942375994 	 -2.288118960623874e-9
0.2445616683452446 	 -2.2881189918528064e-9
0.24682684522556925 	 -2.2881190236627495e-9
0.24911300260677885 	 -2.2881190560645233e-9
0.2514203348142797 	 -2.288119089069189e-9
0.253749037973357 	 -2.288119122687933e-9
0.25609931002584585 	 -2.288119156932137e-9
0.2584713507469564 	 -2.2881191918134976e-9
0.26086536176225483 	 -2.288119227343882e-9
0.26328154656480207 	 -2.2881192635352936e-9
0.26572011053245054 	 -2.2881193004000646e-9
0.2681812609453015 	 -2.2881193379507706e-9
0.27066520700332414 	 -2.2881193762001232e-9
0.2731721598441377 	 -2.2881194151610894e-9
0.27570233256095833 	 -2.2881194548469856e-9
0.2782559402207124 	 -2.2881194952712893e-9
0.2808331998823172 	 -2.288119536447664e-9
0.2834343306151309 	 -2.28811957839016e-9
0.2860595535175743 	 -2.2881196211130705e-9
0.2887090917359235 	 -2.2881196646308423e-9
0.2913831704832787 	 -2.2881197089582573e-9
0.2940820170587063 	 -2.2881197541104587e-9
0.29680586086656024 	 -2.2881198001027632e-9
0.2995549334359814 	 -2.2881198469507253e-9
0.3023294684405778 	 -2.288119894670346e-9
0.3051297017182869 	 -2.288119943277869e-9
0.3079558712914226 	 -2.288119992789717e-9
0.3108082173869064 	 -2.2881200432227394e-9
0.31368698245668775 	 -2.2881200945941565e-9
0.3165924111983522 	 -2.2881201469213663e-9
0.3195247505759212 	 -2.2881202002220854e-9
0.3224842498408441 	 -2.2881202545145316e-9
0.3254711605531848 	 -2.288120309817153e-9
0.32848573660300445 	 -2.2881203661486383e-9
0.33152823423194244 	 -2.2881204235281834e-9
0.33459891205499737 	 -2.2881204819753605e-9
0.3376980310825091 	 -2.2881205415099335e-9
0.34082585474234517 	 -2.2881206021521026e-9
0.3439826489022925 	 -2.288120663922581e-9
0.3471686818926561 	 -2.288120726842332e-9
0.3503842245290674 	 -2.2881207909326227e-9
0.35362955013550423 	 -2.28812085621532e-9
0.356904934567523 	 -2.28812092271266e-9
0.3602106562357071 	 -2.288120990447111e-9
0.36354699612933195 	 -2.2881210594416964e-9
0.36691423784024924 	 -2.288121129719973e-9
0.37031266758699266 	 -2.2881212013057585e-9
0.3737425742391064 	 -2.288121274223265e-9
0.3772042493416998 	 -2.288121348497412e-9
0.3806979871402286 	 -2.2881214241534507e-9
0.38422408460550594 	 -2.2881215012169392e-9
0.3877828414589457 	 -2.288121579714121e-9
0.39137456019803846 	 -2.2881216596717786e-9
0.3949995461220644 	 -2.2881217411169706e-9
0.3986581073580441 	 -2.288121824077296e-9
0.40235055488692917 	 -2.2881219085810947e-9
0.4060772025700365 	 -2.288121994657076e-9
0.4098383671757262 	 -2.2881220823343073e-9
0.41363436840632745 	 -2.288122171642698e-9
0.4174655289253137 	 -2.2881222626126846e-9
0.4213321743847288 	 -2.2881223552750165e-9
0.42523463345286816 	 -2.2881224496611518e-9
0.4291732378422158 	 -2.2881225458033316e-9
0.43314832233763995 	 -2.2881226437341596e-9
0.43716022482485045 	 -2.2881227434867333e-9
0.4412092863191189 	 -2.2881228450951253e-9
0.4452958509942655 	 -2.2881229485939074e-9
0.4494202662119143 	 -2.288123054018039e-9
0.4535828825510188 	 -2.2881231614033927e-9
0.45778405383766185 	 -2.2881232707866095e-9
0.4620241371751312 	 -2.2881233822047378e-9
0.4663034929742731 	 -2.288123495695487e-9
0.47062248498412823 	 -2.2881236112976312e-9
0.47498148032285015 	 -2.288123729050455e-9
0.4793808495089109 	 -2.28812384899372e-9
0.4838209664925956 	 -2.2881239711683007e-9
0.488302208687788 	 -2.288124095615852e-9
0.4928249570040514 	 -2.288124222378464e-9
0.49738959587900644 	 -2.2881243514991183e-9
0.5019965133110081 	 -2.2881244830219214e-9
0.5066461008921267 	 -2.2881246169915115e-9
0.5113387538414326 	 -2.2881247534531375e-9
0.5160748710385908 	 -2.2881248924533807e-9
0.5208548550577662 	 -2.2881250340395667e-9
0.5256791122018423 	 -2.288125178259535e-9
0.5305480525369572 	 -2.2881253251622877e-9
0.5354620899273608 	 -2.2881254747979866e-9
0.5404216420705915 	 -2.288125627217343e-9
0.5454271305329833 	 -2.2881257824718963e-9
0.5504789807854971 	 -2.288125940614686e-9
0.5555776222398876 	 -2.2881261016994873e-9
0.5607234882852032 	 -2.2881262657806987e-9
0.5659170163246243 	 -2.2881264329141917e-9
0.5711586478126431 	 -2.2881266031569706e-9
0.5764488282925877 	 -2.2881267765666576e-9
0.5817880074344934 	 -2.288126953201983e-9
0.5871766390733255 	 -2.2881271331232875e-9
0.5926151812475554 	 -2.2881273163916683e-9
0.598104096238094 	 -2.2881275030690147e-9
0.6036438506075867 	 -2.28812769321898e-9
0.609234915240071 	 -2.288127886906351e-9
0.6148777653810024 	 -2.2881280841965898e-9
0.6205728806776502 	 -2.288128285156639e-9
0.6263207452198689 	 -2.2881284898551236e-9
0.6321218475812452 	 -2.2881286983614545e-9
0.6379766808606282 	 -2.2881289107460792e-9
0.643885742724042 	 -2.2881291270815125e-9
0.649849535446989 	 -2.288129347441354e-9
0.6558685659571432 	 -2.28812957190001e-9
0.6619433458774393 	 -2.288129800533799e-9
0.6680743915695614 	 -2.288130033420719e-9
0.6742622241778342 	 -2.288130270639607e-9
0.6805073696735208 	 -2.2881305122707093e-9
0.6868103588995303 	 -2.288130758396542e-9
0.6931717276155405 	 -2.2881310091007056e-9
0.6995920165435373 	 -2.288131264467811e-9
0.7060717714137773 	 -2.2881315245848195e-9
0.7126115430111748 	 -2.2881317895403808e-9
0.7192118872221189 	 -2.2881320594240624e-9
0.7258733650817251 	 -2.2881323343273146e-9
0.732596542821523 	 -2.288132614344003e-9
0.7393819919175867 	 -2.2881328995691073e-9
0.746230289139111 	 -2.2881331900989204e-9
0.7531420165974372 	 -2.2881334860325445e-9
0.7601177617955328 	 -2.288133787470717e-9
0.7671581176779302 	 -2.2881340945152604e-9
0.7742636826811271 	 -2.2881344072704397e-9
0.7814350607844545 	 -2.2881347258429974e-9
0.7886728615614153 	 -2.2881350503408526e-9
0.7959777002314984 	 -2.2881353808736806e-9
0.8033501977124734 	 -2.2881357175543167e-9
0.8107909806731688 	 -2.2881360604971953e-9
0.8183006815867393 	 -2.2881364098180627e-9
0.8258799387844268 	 -2.288136765635764e-9
0.8335293965098194 	 -2.2881371280716056e-9
0.8412497049736117 	 -2.2881374972481665e-9
0.8490415204088748 	 -2.288137873290363e-9
0.856905505126835 	 -2.2881382563265807e-9
0.8648423275731723 	 -2.2881386464868236e-9
0.8728526623848377 	 -2.2881390439027583e-9
0.880937190447399 	 -2.2881394487098226e-9
0.8890965989529159 	 -2.2881398610458554e-9
0.8973315814583523 	 -2.2881402810501487e-9
0.905642837944529 	 -2.2881407088651152e-9
0.914031074875623 	 -2.2881411446367734e-9
0.9224970052592174 	 -2.288141588512813e-9
0.9310413487069077 	 -2.288142040643073e-9
0.9396648314954694 	 -2.2881425011817937e-9
0.9483681866285923 	 -2.288142970285563e-9
0.9571521538991863 	 -2.2881434481126726e-9
0.9660174799522646 	 -2.2881439348254113e-9
0.9749649183484088 	 -2.288144430589722e-9
0.983995229627823 	 -2.288144935573339e-9
0.9931091813749796 	 -2.288145449946897e-9
1.0023075482838653 	 -2.288145980041628e-9
1.0115911122238297 	 -2.288146513839205e-9
1.0209606623060468 	 -2.2881470575620646e-9
1.030416994950588 	 -2.2881476113952e-9
1.03996091395412 	 -2.288148175527229e-9
1.0495932305582274 	 -2.288148750148744e-9
1.05931476351837 	 -2.288149335454271e-9
1.0691263391734764 	 -2.288149931643549e-9
1.079028791516184 	 -2.288150538918753e-9
1.0890229622637302 	 -2.288151157484795e-9
1.099109700929497 	 -2.2881517875525117e-9
1.1092898648952227 	 -2.2881524293361798e-9
1.1195643194838785 	 -2.288153083052302e-9
1.1299339380332223 	 -2.288153748922499e-9
1.1403996019700327 	 -2.2881544271737843e-9
1.1509622008850322 	 -2.2881551180357433e-9
1.161622632608502 	 -2.288155821741632e-9
1.172381803286599 	 -2.2881565385314967e-9
1.1832406274583787 	 -2.2881572686488006e-9
1.194200028133532 	 -2.2881580123397603e-9
1.2052609368708425 	 -2.288158769857096e-9
1.216424293857368 	 -2.288159541458776e-9
1.2276910479883596 	 -2.2881603274054245e-9
1.2390621569479163 	 -2.288161127962571e-9
1.250538587290391 	 -2.2881619434030728e-9
1.2621213145225472 	 -2.288162774003271e-9
1.2738113231864785 	 -2.2881636200431173e-9
1.2856096069432956 	 -2.2881644818105687e-9
1.2975171686575875 	 -2.2881653595987566e-9
1.3095350204826672 	 -2.288166253703919e-9
1.321664183946605 	 -2.2881671644288538e-9
1.333905690039059 	 -2.288168092084142e-9
1.3462605792989102 	 -2.2881690369838797e-9
1.35872990190271 	 -2.2881699994466563e-9
1.371314717753945 	 -2.2881709798003296e-9
1.3840160965731314 	 -2.288171978377903e-9
1.39683511798874 	 -2.2881729955159706e-9
1.4097728716289668 	 -2.288174031559446e-9
1.4228304572143526 	 -2.2881750868610077e-9
1.4360089846512603 	 -2.2881761617771112e-9
1.4493095741262165 	 -2.2881772566703127e-9
1.46273335620113 	 -2.288178371913557e-9
1.47628147190939 	 -2.2881795078847668e-9
1.4899550728528546 	 -2.2881806649665825e-9
1.503755321299738 	 -2.288181843552356e-9
1.5176833902834053 	 -2.2881830440430894e-9
1.53174046370208 	 -2.288184266843991e-9
1.5459277364194774 	 -2.2881855123684648e-9
1.5602464143663688 	 -2.2881867810409434e-9
1.5746977146430863 	 -2.2881880732908976e-9
1.5892828656229778 	 -2.288189389553607e-9
1.6040031070568201 	 -2.288190730277159e-9
1.6188596901781982 	 -2.288192095917069e-9
1.6338538778098612 	 -2.2881934869335556e-9
1.6489869444710645 	 -2.2881949037974175e-9
1.6642601764859035 	 -2.288196346990651e-9
1.6796748720926535 	 -2.2881978170004047e-9
1.6952323415541204 	 -2.2881993143215063e-9
1.7109339072690144 	 -2.288200839463453e-9
1.7267809038843556 	 -2.2882023929432692e-9
1.742774678408919 	 -2.2882039752840592e-9
1.7589165903277328 	 -2.2882055870226687e-9
1.775208011717635 	 -2.288207228707384e-9
1.7916503273639006 	 -2.2882089008921147e-9
1.8082449348779512 	 -2.288210604140932e-9
1.8249932448161523 	 -2.288212339033769e-9
1.8418966807997113 	 -2.288214106157786e-9
1.8589566796356871 	 -2.288215906107305e-9
1.8761746914391206 	 -2.288217739493403e-9
1.893552179756295 	 -2.2882196069380974e-9
1.911090621689138 	 -2.2882215090700402e-9
1.9287915080207783 	 -2.2882234465318964e-9
1.9466563433422621 	 -2.2882254199830005e-9
1.9646866461804458 	 -2.288227430090299e-9
1.982883949127071 	 -2.288229477529952e-9
2.001249798969037 	 -2.288231562997487e-9
2.019785756819879 	 -2.2882336871994913e-9
2.0384933982524633 	 -2.288235850850223e-9
2.0573743134329128 	 -2.2882380546812547e-9
2.0764301072557747 	 -2.2882402994405927e-9
2.095662399480433 	 -2.288242585884158e-9
2.115072824868795 	 -2.2882449147811466e-9
2.1346630333242445 	 -2.288247286922991e-9
2.154434690031884 	 -2.2882497031122263e-9
2.17438947560008 	 -2.2882521641609773e-9
2.194529086203314 	 -2.2882546709036834e-9
2.2148552337263596 	 -2.288257224191767e-9
2.2353696459097954 	 -2.2882598248852714e-9
2.256074066496861 	 -2.2882624738609244e-9
2.2769702553816797 	 -2.2882651720184615e-9
2.2980599887588515 	 -2.288267920268014e-9
2.3193450592744282 	 -2.2882707195317334e-9
2.340827276178293 	 -2.288273570758118e-9
2.362508465477947 	 -2.2882764749117762e-9
2.38439047009372 	 -2.28827943296835e-9
2.4064751500154244 	 -2.2882824459265903e-9
2.428764382460451 	 -2.2882855148093983e-9
2.4512600620333385 	 -2.2882886406506895e-9
2.4739641008868136 	 -2.2882918245001438e-9
2.4968784288843264 	 -2.288295067437881e-9
2.5200049937640925 	 -2.288298370558655e-9
2.543345761304649 	 -2.2883017349684687e-9
2.5669027154919504 	 -2.2883051618022734e-9
2.590677858688008 	 -2.28830865222001e-9
2.6146732118010916 	 -2.288312207395188e-9
2.6388908144575107 	 -2.2883158285228337e-9
2.663332725174982 	 -2.2883195168315555e-9
2.6880010215376062 	 -2.288323273566997e-9
2.7128978003724664 	 -2.2883270999895353e-9
2.7380251779278577 	 -2.2883309973942036e-9
2.7633852900531704 	 -2.288334967099478e-9
2.7889802923804408 	 -2.28833901043673e-9
2.8148123605075797 	 -2.2883431287648184e-9
2.8408836901833032 	 -2.2883473234780574e-9
2.8671964974937696 	 -2.288351595986885e-9
2.893753019050951 	 -2.288355947720788e-9
2.9205555121827462 	 -2.2883603801510864e-9
2.9476062551248576 	 -2.2883648947732914e-9
2.97490754721444 	 -2.2883694930989135e-9
3.002461709085549 	 -2.28837417667616e-9
3.030271082866397 	 -2.28837894708965e-9
3.058338032378433 	 -2.288383805939655e-9
3.0866649433372735 	 -2.2883887548536247e-9
3.115254223555487 	 -2.288393795505252e-9
3.1441083031472647 	 -2.2883989295903844e-9
3.173229634734977 	 -2.288404158824184e-9
3.202620693657652 	 -2.288409484969669e-9
3.2322839781813792 	 -2.2884149098266226e-9
3.262222009711669 	 -2.288420435211877e-9
3.292437333007769 	 -2.2884260629757884e-9
3.3229325163989727 	 -2.288431795019336e-9
3.3537101520029307 	 -2.288437633266207e-9
3.384772855945981 	 -2.288443579662542e-9
3.4161232685855274 	 -2.2884496362109097e-9
3.4477640547344643 	 -2.288455804949447e-9
3.4796979038876925 	 -2.2884620879376073e-9
3.5119275304507296 	 -2.2884684872835374e-9
3.5444556739704347 	 -2.2884750051463662e-9
3.5772850993678724 	 -2.288481643709465e-9
3.610418597173337 	 -2.288488405189755e-9
3.6438589837635456 	 -2.2884952918673267e-9
3.6776091016010324 	 -2.2885023060552677e-9
3.711671819475766 	 -2.288509450091374e-9
3.746050032748992 	 -2.2885167263718307e-9
3.7807466635993494 	 -2.2885241373431804e-9
3.8157646612712495 	 -2.288531685477086e-9
3.8511070023255707 	 -2.2885393732901972e-9
3.886776690892667 	 -2.2885472033703766e-9
3.9227767589277187 	 -2.2885551783375223e-9
3.9591102664684588 	 -2.2885633008443773e-9
3.9957803018952704 	 -2.2885715736202116e-9
4.032789982193707 	 -2.2885799994406307e-9
4.070142453219438 	 -2.2885885811086137e-9
4.1078408899656464 	 -2.2885973214889675e-9
4.145888496832911 	 -2.2886062235211823e-9
4.184288507901582 	 -2.2886152901743724e-9
4.223044187206674 	 -2.288624524454727e-9
4.262158829015324 	 -2.288633929459385e-9
4.301635758106795 	 -2.2886435083314607e-9
4.341478330055092 	 -2.288653264245158e-9
4.381689931514191 	 -2.288663200456003e-9
4.422273980505899 	 -2.288673320298475e-9
4.463233926710396 	 -2.288683627142152e-9
4.504573251759458 	 -2.2886941244084376e-9
4.5462954695324 	 -2.2887048156194208e-9
4.5884041264547575 	 -2.2887157043389484e-9
4.630902801799739 	 -2.2887267941681025e-9
4.673795107992462 	 -2.288738088809744e-9
4.717084690917018 	 -2.2887495920417642e-9
4.760775230226369 	 -2.2887613076747818e-9
4.80487043965513 	 -2.2887732395960092e-9
4.849374067335235 	 -2.288785391805052e-9
4.894289896114531 	 -2.28879776834325e-9
4.9396217438783205 	 -2.28881037330163e-9
4.985373463873895 	 -2.2888232108923087e-9
5.031548945038053 	 -2.288836285394795e-9
5.078152112327674 	 -2.288849601122011e-9
5.125186927053331 	 -2.288863162481929e-9
5.172657387216019 	 -2.2888769739876826e-9
5.220567527846977 	 -2.288891040202032e-9
5.268921421350674 	 -2.288905365764135e-9
5.3177231778509695 	 -2.2889199554463482e-9
5.3669769455404746 	 -2.2889348140864294e-9
5.416686911033152 	 -2.28894994658787e-9
5.466857299720182 	 -2.2889653579774808e-9
5.517492376129126 	 -2.2889810533930804e-9
5.5685964442864115 	 -2.2889970380141005e-9
