# This is an integration map on mu of the ξ multipole auto_localgp GR effect.
# The following parameters were used for this computation: 
# CLASS Power Spectrum input file : "../../test/datatest/file_pk.txt"
# F window function input file : "../../test/datatest/F_REFERENCE.txt"
# CLASS Background input file: "../../test/datatest/WideA_ZA_background.dat"
# 	 z_min = 0.05 	 z_max = 0.2
# 	 k_min = 1.0e-8 	 k_max = 10.0
# 	 h_0 = 0.7 	 Ω_b = 0.0489 	 Ω_cdm = 0.25102 	 Ω_M0 = 0.29992
# 	 comoving s_min = 148.1920001465757 Mpc/h_0
# 	 comoving s_max = 571.7022420258767 Mpc/h_0
# 	 comoving s_eff = 435.3747095690664 Mpc/h_0
# 	 comoving z_eff = 0.15045636096023224 
# 	 Volume of the survey V_survey = 3.845366167995967e8
# 	 σ_0 = 15.593462966741178
# 	 σ_1 = 15.074895881392285
# 	 σ_2 = 100.85852368830221
# 	 σ_3 = 3735.1227501923527
# 
# computational time needed (in s) : 2.0515
# kwards passed: 
# 		use_windows = false
# 		μ_rtol = 0.001
# 		N_μs = 50
# 		N_log = 1000
# 
# s [Mpc/h_0] 	 	 xi
0.1 	 -1.3737468666266055e-14
0.10092621909870476 	 -1.3993035985372535e-14
0.10186101701559758 	 -1.4253374447359082e-14
0.10280447320933092 	 -1.451857832097421e-14
0.10375666787451857 	 -1.4788738779994133e-14
0.10471768194855202 	 -1.5063935636681372e-14
0.10568759711848043 	 -1.534424064981079e-14
0.10666649582795393 	 -1.5629753652819475e-14
0.10765446128423156 	 -1.5920580330949032e-14
0.1086515774652538 	 -1.621681559669798e-14
0.10965792912678099 	 -1.6518560334736776e-14
0.11067360180959737 	 -1.6825925891720382e-14
0.11169868184678232 	 -1.7139012618211944e-14
0.11273325637104868 	 -1.7457916244402382e-14
0.1137774133221491 	 -1.7782754518574138e-14
0.11483124145435111 	 -1.8113641609117972e-14
0.1158948303439811 	 -1.8450679682085174e-14
0.11696827039703853 	 -1.8793985288821358e-14
0.11805165285688052 	 -1.9143684463132882e-14
0.11914506981197756 	 -1.9499890040664293e-14
0.12024861420374122 	 -1.9862714647419695e-14
0.12136237983442408 	 -2.0232293445665122e-14
0.12248646137509314 	 -2.060875332757261e-14
0.12362095437367689 	 -2.099220917116135e-14
0.12476595526308698 	 -2.138279780700457e-14
0.1259215613694151 	 -2.1780660368001256e-14
0.12708787092020585 	 -2.21859224200985e-14
0.12826498305280606 	 -2.259871646930401e-14
0.12945299782279157 	 -2.301919627283126e-14
0.13065201621247213 	 -2.3447502750644743e-14
0.13186214013947484 	 -2.388376729025402e-14
0.1330834724654075 	 -2.4328149329183654e-14
0.1343161170046016 	 -2.478080642127848e-14
0.13556017853293686 	 -2.524187875398062e-14
0.1368157627967472 	 -2.5711522540321703e-14
0.13808297652180923 	 -2.618991138167576e-14
0.13936192742241424 	 -2.66772018010475e-14
0.14065272421052372 	 -2.717354581889056e-14
0.14195547660501012 	 -2.7679127641682266e-14
0.1432702953409831 	 -2.8194122657566958e-14
0.144597292179202 	 -2.8718688532906085e-14
0.14593657991557565 	 -2.925300915527552e-14
0.14728827239075026 	 -2.97972793598848e-14
0.1486524844997857 	 -3.035167302494325e-14
0.15002933220192183 	 -3.091636804125183e-14
0.15141893253043523 	 -3.14915749380854e-14
0.15282140360258697 	 -3.207748892546125e-14
0.15423686462966282 	 -3.26742888845179e-14
0.15566543592710616 	 -3.3282190198688195e-14
0.15710723892474504 	 -3.390141071886977e-14
0.15856239617711376 	 -3.453214400150267e-14
0.16003103137387006 	 -3.517459953888944e-14
0.16151326935030905 	 -3.58290159125298e-14
0.16300923609797408 	 -3.649560998801693e-14
0.16451905877536624 	 -3.7174587350982495e-14
0.166042865718753 	 -3.7866198174487074e-14
0.16758078645307678 	 -3.8570685267409215e-14
0.1691329517029648 	 -3.9288265304528783e-14
0.17069949340384075 	 -4.001918513679643e-14
0.1722805447131394 	 -4.0763713498285494e-14
0.17387624002162508 	 -4.152209104913345e-14
0.1754867149648151 	 -4.2294557183143584e-14
0.17711210643450878 	 -4.308139936988641e-14
0.1787525525904235 	 -4.388288776789741e-14
0.18040819287193827 	 -4.469926699054719e-14
0.18207916800994628 	 -4.5530827184137293e-14
0.18376562003881713 	 -4.6377869196674717e-14
0.18546769230846985 	 -4.7240660619777535e-14
0.18718552949655787 	 -4.811948253175007e-14
0.18891927762076663 	 -4.9014662150876234e-14
0.19066908405122523 	 -4.9926499909863826e-14
0.19243509752303312 	 -5.0855274827962995e-14
0.1942174681489026 	 -5.1801325642053214e-14
0.1960163474319185 	 -5.276498801553806e-14
0.19783188827841644 	 -5.374656066484621e-14
0.1996642450109794 	 -5.4746374685379826e-14
0.20151357338155576 	 -5.576479978557243e-14
0.20338003058469817 	 -5.6802169473155795e-14
0.20526377527092515 	 -5.785880647178803e-14
0.2071649675602069 	 -5.893510219642605e-14
0.20908376905557505 	 -6.003143054925655e-14
0.21102034285685956 	 -6.114812697830685e-14
0.21297485357455204 	 -6.228558137353681e-14
0.214947467343798 	 -6.344420890000109e-14
0.21693835183851842 	 -6.46243799020132e-14
0.2189476762856621 	 -6.582647166158323e-14
0.22097561147959022 	 -6.705093194565609e-14
0.2230223297965938 	 -6.829817661900273e-14
0.22508800520954617 	 -6.956858605856114e-14
0.2271728133026905 	 -7.086261729751742e-14
0.22927693128656493 	 -7.218073426782761e-14
0.2314005380130653 	 -7.352334924887543e-14
0.23354381399064789 	 -7.489090615862579e-14
0.23570694139967277 	 -7.628391282969388e-14
0.23789010410788933 	 -7.770283130801342e-14
0.24009348768606525 	 -7.914809800527784e-14
0.24231727942375994 	 -8.062024423298793e-14
0.2445616683452446 	 -8.211978710656884e-14
0.24682684522556925 	 -8.364718778036958e-14
0.24911300260677885 	 -8.520296956104042e-14
0.2514203348142797 	 -8.678770421756375e-14
0.253749037973357 	 -8.840190468173235e-14
0.25609931002584585 	 -9.004607836733129e-14
0.2584713507469564 	 -9.172083622848138e-14
0.26086536176225483 	 -9.342675386951118e-14
0.26328154656480207 	 -9.516435115498938e-14
0.26572011053245054 	 -9.693424330906098e-14
0.2681812609453015 	 -9.873707085502782e-14
0.27066520700332414 	 -1.005734035738849e-13
0.2731721598441377 	 -1.0244383694621255e-13
0.27570233256095833 	 -1.0434906675273636e-13
0.2782559402207124 	 -1.0628973284786459e-13
0.2808331998823172 	 -1.0826642778103748e-13
0.2834343306151309 	 -1.1027987004606577e-13
0.2860595535175743 	 -1.1233077443450422e-13
0.2887090917359235 	 -1.144197763568234e-13
0.2913831704832787 	 -1.1654757725160767e-13
0.2940820170587063 	 -1.1871496356970884e-13
0.29680586086656024 	 -1.20922645572473e-13
0.2995549334359814 	 -1.2317130742144357e-13
0.3023294684405778 	 -1.2546178011802057e-13
0.3051297017182869 	 -1.2779485974040646e-13
0.3079558712914226 	 -1.3017125922864122e-13
0.3108082173869064 	 -1.3259180470939938e-13
0.31368698245668775 	 -1.350573793673597e-13
0.3165924111983522 	 -1.375687715348641e-13
0.3195247505759212 	 -1.4012678042458663e-13
0.3224842498408441 	 -1.42732357315341e-13
0.3254711605531848 	 -1.4538638735276676e-13
0.32848573660300445 	 -1.4808967813287098e-13
0.33152823423194244 	 -1.5084319816232363e-13
0.33459891205499737 	 -1.5364793476775047e-13
0.3376980310825091 	 -1.565047648545573e-13
0.34082585474234517 	 -1.59414628254163e-13
0.3439826489022925 	 -1.623786042407196e-13
0.3471686818926561 	 -1.6539767611657614e-13
0.3503842245290674 	 -1.684727691994067e-13
0.35362955013550423 	 -1.7160501012214903e-13
0.356904934567523 	 -1.747954991037683e-13
0.3602106562357071 	 -1.7804521628688113e-13
0.36354699612933195 	 -1.8135526920365322e-13
0.36691423784024924 	 -1.847268736332234e-13
0.37031266758699266 	 -1.8816112061857194e-13
0.3737425742391064 	 -1.9165908466953743e-13
0.3772042493416998 	 -1.9522206227270348e-13
0.3806979871402286 	 -1.9885127770879765e-13
0.38422408460550594 	 -2.02547834665073e-13
0.3877828414589457 	 -2.0631303545222093e-13
0.39137456019803846 	 -2.1014824197153943e-13
0.3949995461220644 	 -2.1405466579764033e-13
0.3986581073580441 	 -2.1803356651417212e-13
0.40235055488692917 	 -2.2208642162730295e-13
0.4060772025700365 	 -2.2621459160467013e-13
0.4098383671757262 	 -2.3041933250413764e-13
0.41363436840632745 	 -2.347021661182032e-13
0.4174655289253137 	 -2.39064612080726e-13
0.4213321743847288 	 -2.435080202716328e-13
0.42523463345286816 	 -2.480338739285397e-13
0.4291732378422158 	 -2.526438433751263e-13
0.43314832233763995 	 -2.5733943847921945e-13
0.43716022482485045 	 -2.6212210715936765e-13
0.4412092863191189 	 -2.669936109214375e-13
0.4452958509942655 	 -2.7195564150593624e-13
0.4494202662119143 	 -2.7700971170391357e-13
0.4535828825510188 	 -2.821575684301565e-13
0.45778405383766185 	 -2.874010876818745e-13
0.4620241371751312 	 -2.927419443698606e-13
0.4663034929742731 	 -2.9818182786235223e-13
0.47062248498412823 	 -3.0372275545700806e-13
0.47498148032285015 	 -3.093666079828493e-13
0.4793808495089109 	 -3.151150961700168e-13
0.4838209664925956 	 -3.2097026883659416e-13
0.488302208687788 	 -3.269342228249309e-13
0.4928249570040514 	 -3.330088195730708e-13
0.49738959587900644 	 -3.391960445707738e-13
0.5019965133110081 	 -3.4549818722146026e-13
0.5066461008921267 	 -3.5191733576681186e-13
0.5113387538414326 	 -3.5845544745306664e-13
0.5160748710385908 	 -3.6511490665267454e-13
0.5208548550577662 	 -3.718980494457055e-13
0.5256791122018423 	 -3.7880695384943234e-13
0.5305480525369572 	 -3.8584395888619635e-13
0.5354620899273608 	 -3.930116439392038e-13
0.5404216420705915 	 -4.003123246707912e-13
0.5454271305329833 	 -4.0774827037368356e-13
0.5504789807854971 	 -4.153222266489209e-13
0.5555776222398876 	 -4.230367914573917e-13
0.5607234882852032 	 -4.3089430176416673e-13
0.5659170163246243 	 -4.388975078005511e-13
0.5711586478126431 	 -4.47049298709216e-13
0.5764488282925877 	 -4.553522437152551e-13
0.5817880074344934 	 -4.638090004161101e-13
0.5871766390733255 	 -4.72422698623067e-13
0.5926151812475554 	 -4.811962238095188e-13
0.598104096238094 	 -4.901322309416002e-13
0.6036438506075867 	 -4.992339351401688e-13
0.609234915240071 	 -5.08504558992448e-13
0.6148777653810024 	 -5.179469614015533e-13
0.6205728806776502 	 -5.275642703739023e-13
0.6263207452198689 	 -5.373600242772733e-13
0.6321218475812452 	 -5.473374234444792e-13
0.6379766808606282 	 -5.574995228354898e-13
0.643885742724042 	 -5.678500460423666e-13
0.649849535446989 	 -5.78392578365256e-13
0.6558685659571432 	 -5.891303195041378e-13
0.6619433458774393 	 -6.000669524174154e-13
0.6680743915695614 	 -6.112064506916553e-13
0.6742622241778342 	 -6.225523613549233e-13
0.6805073696735208 	 -6.341082439590665e-13
0.6868103588995303 	 -6.458783641082083e-13
0.6931717276155405 	 -6.578667049958072e-13
0.6995920165435373 	 -6.700768787418159e-13
0.7060717714137773 	 -6.825132053324387e-13
0.7126115430111748 	 -6.951801243545793e-13
0.7192118872221189 	 -7.080815731308129e-13
0.7258733650817251 	 -7.212217312854337e-13
0.732596542821523 	 -7.34605440240847e-13
0.7393819919175867 	 -7.482371188995995e-13
0.746230289139111 	 -7.62120892059291e-13
0.7531420165974372 	 -7.762617889802855e-13
0.7601177617955328 	 -7.906647523700591e-13
0.7671581176779302 	 -8.053341710805433e-13
0.7742636826811271 	 -8.202749665466718e-13
0.7814350607844545 	 -8.354925922474677e-13
0.7886728615614153 	 -8.509919437992332e-13
0.7959777002314984 	 -8.667777949617044e-13
0.8033501977124734 	 -8.828559387503462e-13
0.8107909806731688 	 -8.992318676332522e-13
0.8183006815867393 	 -9.159105082120578e-13
0.8258799387844268 	 -9.32897646416962e-13
0.8335293965098194 	 -9.50199387813099e-13
0.8412497049736117 	 -9.678211570276246e-13
0.8490415204088748 	 -9.857685371318365e-13
0.856905505126835 	 -1.0040481325179692e-12
0.8648423275731723 	 -1.0226660375431924e-12
0.8728526623848377 	 -1.0416278379923381e-12
0.880937190447399 	 -1.0609402983300075e-12
0.8890965989529159 	 -1.0806102237272004e-12
0.8973315814583523 	 -1.1006436410046719e-12
0.905642837944529 	 -1.1210471158816122e-12
0.914031074875623 	 -1.1418281131451614e-12
0.9224970052592174 	 -1.1629933846306508e-12
0.9310413487069077 	 -1.1845493441812477e-12
0.9396648314954694 	 -1.2065038278902542e-12
0.9483681866285923 	 -1.2288643994205987e-12
0.9571521538991863 	 -1.251637790952462e-12
0.9660174799522646 	 -1.2748317295928369e-12
0.9749649183484088 	 -1.2984545938967363e-12
0.983995229627823 	 -1.3225138565275956e-12
0.9931091813749796 	 -1.3470169774370158e-12
1.0023075482838653 	 -1.3719729309883403e-12
1.0115911122238297 	 -1.397390116716881e-12
1.0209606623060468 	 -1.4232761151100448e-12
1.030416994950588 	 -1.4496399885114475e-12
1.03996091395412 	 -1.476491090172502e-12
1.0495932305582274 	 -1.5038377003429803e-12
1.05931476351837 	 -1.531688567651631e-12
1.0691263391734764 	 -1.5600538787099507e-12
1.079028791516184 	 -1.588942932629785e-12
1.0890229622637302 	 -1.6183643685083723e-12
1.099109700929497 	 -1.6483287374027301e-12
1.1092898648952227 	 -1.6788464406950352e-12
1.1195643194838785 	 -1.7099266893017343e-12
1.1299339380332223 	 -1.741579776894177e-12
1.1403996019700327 	 -1.7738171706059019e-12
1.1509622008850322 	 -1.806649156724152e-12
1.161622632608502 	 -1.8400857109108475e-12
1.172381803286599 	 -1.8741389871911007e-12
1.1832406274583787 	 -1.9088205271841153e-12
1.194200028133532 	 -1.9441406458661077e-12
1.2052609368708425 	 -1.9801114396967923e-12
1.216424293857368 	 -2.016745735193559e-12
1.2276910479883596 	 -2.054054908194788e-12
1.2390621569479163 	 -2.092050606644481e-12
1.250538587290391 	 -2.130746681914736e-12
1.2621213145225472 	 -2.1701559202597807e-12
1.2738113231864785 	 -2.2102899863767718e-12
1.2856096069432956 	 -2.2511630196213296e-12
1.2975171686575875 	 -2.292789298088619e-12
1.3095350204826672 	 -2.3351814312658586e-12
1.321664183946605 	 -2.3783531012642398e-12
1.333905690039059 	 -2.422319953371369e-12
1.3462605792989102 	 -2.4670961273706056e-12
1.35872990190271 	 -2.512694981510676e-12
1.371314717753945 	 -2.559132893872468e-12
1.3840160965731314 	 -2.6064257079031237e-12
1.39683511798874 	 -2.654587472199948e-12
1.4097728716289668 	 -2.703634276959136e-12
1.4228304572143526 	 -2.7535836644141357e-12
1.4360089846512603 	 -2.804451251229586e-12
1.4493095741262165 	 -2.8562525403213648e-12
1.46273335620113 	 -2.9090062884644132e-12
1.47628147190939 	 -2.9627300434195596e-12
1.4899550728528546 	 -3.017439583775374e-12
1.503755321299738 	 -3.073153771253976e-12
1.5176833902834053 	 -3.1298921604486984e-12
1.53174046370208 	 -3.187672012013575e-12
1.5459277364194774 	 -3.246511477530314e-12
1.5602464143663688 	 -3.30643182456529e-12
1.5746977146430863 	 -3.3674524536866765e-12
1.5892828656229778 	 -3.4295912866010393e-12
1.6040031070568201 	 -3.4928702769192844e-12
1.6188596901781982 	 -3.5573111306792562e-12
1.6338538778098612 	 -3.6229329922659125e-12
1.6489869444710645 	 -3.689757194801206e-12
1.6642601764859035 	 -3.757807650370107e-12
1.6796748720926535 	 -3.827105766429981e-12
1.6952323415541204 	 -3.897672178403431e-12
1.7109339072690144 	 -3.969532166529915e-12
1.7267809038843556 	 -4.04270976406425e-12
1.742774678408919 	 -4.1172263420187816e-12
1.7589165903277328 	 -4.193106951542481e-12
1.775208011717635 	 -4.27037829670996e-12
1.7916503273639006 	 -4.349063986054288e-12
1.8082449348779512 	 -4.429188062772081e-12
1.8249932448161523 	 -4.510779313470897e-12
1.8418966807997113 	 -4.593864296037144e-12
1.8589566796356871 	 -4.678467094037087e-12
1.8761746914391206 	 -4.7646169736434644e-12
1.893552179756295 	 -4.852343600948665e-12
1.911090621689138 	 -4.941673060862573e-12
1.9287915080207783 	 -5.032633553130867e-12
1.9466563433422621 	 -5.125257550508637e-12
1.9646866461804458 	 -5.219574341868337e-12
1.982883949127071 	 -5.315611414711348e-12
2.001249798969037 	 -5.4134026524194115e-12
2.019785756819879 	 -5.5129808912919925e-12
2.0384933982524633 	 -5.614375087502742e-12
2.0573743134329128 	 -5.717618368630899e-12
2.0764301072557747 	 -5.822747080159175e-12
2.095662399480433 	 -5.9297934678788396e-12
2.115072824868795 	 -6.0387893431341545e-12
2.1346630333242445 	 -6.149773479170756e-12
2.154434690031884 	 -6.2627821406540576e-12
2.17438947560008 	 -6.377847725181663e-12
2.194529086203314 	 -6.495009036091166e-12
2.2148552337263596 	 -6.614306497277319e-12
2.2353696459097954 	 -6.735775620147434e-12
2.256074066496861 	 -6.85945357586315e-12
2.2769702553816797 	 -6.98538426688305e-12
2.2980599887588515 	 -7.113607660592988e-12
2.3193450592744282 	 -7.244160411725512e-12
2.340827276178293 	 -7.377087653210398e-12
2.362508465477947 	 -7.512434132346095e-12
2.38439047009372 	 -7.650239075338959e-12
2.4064751500154244 	 -7.790546106190954e-12
2.428764382460451 	 -7.933404494573097e-12
2.4512600620333385 	 -8.078858189627489e-12
2.4739641008868136 	 -8.226949248914702e-12
2.4968784288843264 	 -8.377729601666871e-12
2.5200049937640925 	 -8.531248630638576e-12
2.543345761304649 	 -8.687549931757799e-12
2.5669027154919504 	 -8.846684677067974e-12
2.590677858688008 	 -9.008707753283426e-12
2.6146732118010916 	 -9.173667430997603e-12
2.6388908144575107 	 -9.34161258190413e-12
2.663332725174982 	 -9.512602257731902e-12
2.6880010215376062 	 -9.68669083537371e-12
2.7128978003724664 	 -9.863927229439777e-12
2.7380251779278577 	 -1.0044371170967857e-11
2.7633852900531704 	 -1.0228083448355856e-11
2.7889802923804408 	 -1.0415117150248809e-11
2.8148123605075797 	 -1.0605529487669229e-11
2.8408836901833032 	 -1.079938693991062e-11
2.8671964974937696 	 -1.0996749239026102e-11
2.893753019050951 	 -1.1197671975926696e-11
2.9205555121827462 	 -1.140222424565625e-11
2.9476062551248576 	 -1.1610473091353438e-11
2.97490754721444 	 -1.1822477155805733e-11
3.002461709085549 	 -1.2038303556757319e-11
3.030271082866397 	 -1.2258026504716676e-11
3.058338032378433 	 -1.2481711464591412e-11
3.0866649433372735 	 -1.2709422546793433e-11
3.115254223555487 	 -1.294123871387608e-11
3.1441083031472647 	 -1.3177233710529535e-11
3.173229634734977 	 -1.3417472816667664e-11
3.202620693657652 	 -1.3662034566423622e-11
3.2322839781813792 	 -1.39110012239389e-11
3.262222009711669 	 -1.4164444513180228e-11
3.292437333007769 	 -1.4422439159956839e-11
3.3229325163989727 	 -1.4685074390635753e-11
3.3537101520029307 	 -1.4952431118067643e-11
3.384772855945981 	 -1.522458283472967e-11
3.4161232685855274 	 -1.550162079016785e-11
3.4477640547344643 	 -1.5783635682894753e-11
3.4796979038876925 	 -1.607070629034845e-11
3.5119275304507296 	 -1.6362920158751797e-11
3.5444556739704347 	 -1.6660377145102377e-11
3.5772850993678724 	 -1.6963165781738997e-11
3.610418597173337 	 -1.7271370020613087e-11
3.6438589837635456 	 -1.758509472268421e-11
3.6776091016010324 	 -1.7904439529847554e-11
3.711671819475766 	 -1.8229491486899755e-11
3.746050032748992 	 -1.8560353157303976e-11
3.7807466635993494 	 -1.8897135381339414e-11
3.8157646612712495 	 -1.9239934832105087e-11
3.8511070023255707 	 -1.9588848733759895e-11
3.886776690892667 	 -1.9943996084692106e-11
3.9227767589277187 	 -2.0305486050095884e-11
3.9591102664684588 	 -2.0673415724677737e-11
3.9957803018952704 	 -2.1047904692138433e-11
4.032789982193707 	 -2.142907518207844e-11
4.070142453219438 	 -2.1817032841801448e-11
4.1078408899656464 	 -2.221189122565469e-11
4.145888496832911 	 -2.26137839070452e-11
4.184288507901582 	 -2.302283012274261e-11
4.223044187206674 	 -2.3439139613124842e-11
4.262158829015324 	 -2.3862850528342012e-11
4.301635758106795 	 -2.429409699008204e-11
4.341478330055092 	 -2.473299490341686e-11
4.381689931514191 	 -2.517967727144434e-11
4.422273980505899 	 -2.5634292631811223e-11
4.463233926710396 	 -2.609697082753388e-11
4.504573251759458 	 -2.656783785495566e-11
4.5462954695324 	 -2.7047051280548257e-11
4.5884041264547575 	 -2.753475777821323e-11
4.630902801799739 	 -2.8031085470966544e-11
4.673795107992462 	 -2.853618978403526e-11
4.717084690917018 	 -2.905023461271314e-11
4.760775230226369 	 -2.957336120003585e-11
4.80487043965513 	 -3.010571595542171e-11
4.849374067335235 	 -3.064747635597308e-11
4.894289896114531 	 -3.1198802254810725e-11
4.9396217438783205 	 -3.175983688534619e-11
4.985373463873895 	 -3.23307605933396e-11
5.031548945038053 	 -3.2911753096155045e-11
5.078152112327674 	 -3.3502968342910626e-11
5.125186927053331 	 -3.4104577518756236e-11
