# This is an integration map on mu of the ξ multipole lensing_doppler GR effect.
# The following parameters were used for this computation: 
# CLASS Power Spectrum input file : "../../test/datatest/file_pk.txt"
# F window function input file : "../../test/datatest/F_REFERENCE.txt"
# CLASS Background input file: "../../test/datatest/WideA_ZA_background.dat"
# 	 z_min = 0.05 	 z_max = 0.2
# 	 k_min = 1.0e-8 	 k_max = 10.0
# 	 h_0 = 0.7 	 Ω_b = 0.0489 	 Ω_cdm = 0.25102 	 Ω_M0 = 0.29992
# 	 comoving s_min = 148.1920001465757 Mpc/h_0
# 	 comoving s_max = 571.7022420258767 Mpc/h_0
# 	 comoving s_eff = 435.3747095690664 Mpc/h_0
# 	 comoving z_eff = 0.15045636096023224 
# 	 Volume of the survey V_survey = 3.845366167995967e8
# 	 σ_0 = 15.593462966741178
# 	 σ_1 = 15.074895881392285
# 	 σ_2 = 100.85852368830221
# 	 σ_3 = 3735.1227501923527
# 
# computational time needed (in s) : 17.5985
# kwards passed: 
# 		use_windows = false
# 		N_χs = 50
# 		N_μs = 30
# 
# s [Mpc/h_0] 	 	 xi
0.1 	 -1.7808286656700662e-7
0.10092621909870476 	 -1.7808284515282255e-7
0.10186101701559758 	 -1.7808282334013472e-7
0.10280447320933092 	 -1.7808280112155154e-7
0.10375666787451857 	 -1.7808277848946202e-7
0.10471768194855202 	 -1.780827554361854e-7
0.10568759711848043 	 -1.7808273195393568e-7
0.10666649582795393 	 -1.780827080347306e-7
0.10765446128423156 	 -1.780826836703512e-7
0.1086515774652538 	 -1.7808265885260692e-7
0.10965792912678099 	 -1.7808263357297233e-7
0.11067360180959737 	 -1.7808260782295564e-7
0.11169868184678232 	 -1.7808258159376534e-7
0.11273325637104868 	 -1.7808255487641596e-7
0.1137774133221491 	 -1.780825276619433e-7
0.11483124145435111 	 -1.780824999409769e-7
0.1158948303439811 	 -1.7808247170416346e-7
0.11696827039703853 	 -1.7808244294191436e-7
0.11805165285688052 	 -1.7808241364440944e-7
0.11914506981197756 	 -1.7808238380168818e-7
0.12024861420374122 	 -1.780823534036222e-7
0.12136237983442408 	 -1.780823224399179e-7
0.12248646137509314 	 -1.7808229089999393e-7
0.12362095437367689 	 -1.780822587731362e-7
0.12476595526308698 	 -1.780822260484494e-7
0.1259215613694151 	 -1.780821927148071e-7
0.12708787092020585 	 -1.780821587608304e-7
0.12826498305280606 	 -1.7808212417502667e-7
0.12945299782279157 	 -1.7808208894564126e-7
0.13065201621247213 	 -1.7808205306066794e-7
0.13186214013947484 	 -1.7808201650790803e-7
0.1330834724654075 	 -1.7808197927498657e-7
0.1343161170046016 	 -1.7808194134919703e-7
0.13556017853293686 	 -1.7808190271765023e-7
0.1368157627967472 	 -1.7808186336721043e-7
0.13808297652180923 	 -1.7808182328455475e-7
0.13936192742241424 	 -1.7808178245596236e-7
0.14065272421052372 	 -1.7808174086766688e-7
0.14195547660501012 	 -1.7808169850545639e-7
0.1432702953409831 	 -1.7808165535492868e-7
0.144597292179202 	 -1.7808161140149328e-7
0.14593657991557565 	 -1.780815666301329e-7
0.14728827239075026 	 -1.780815210256655e-7
0.1486524844997857 	 -1.7808147457256515e-7
0.15002933220192183 	 -1.7808142725503374e-7
0.15141893253043523 	 -1.7808137905703352e-7
0.15282140360258697 	 -1.7808132996215406e-7
0.15423686462966282 	 -1.780812799537116e-7
0.15566543592710616 	 -1.7808122901471765e-7
0.15710723892474504 	 -1.7808117712784498e-7
0.15856239617711376 	 -1.7808112427543705e-7
0.16003103137387006 	 -1.7808107043958864e-7
0.16151326935030905 	 -1.7808101560194433e-7
0.16300923609797408 	 -1.780809597438986e-7
0.16451905877536624 	 -1.7808090284646166e-7
0.166042865718753 	 -1.7808084489028455e-7
0.16758078645307678 	 -1.7808078585567166e-7
0.1691329517029648 	 -1.7808072572253954e-7
0.17069949340384075 	 -1.7808066447050848e-7
0.1722805447131394 	 -1.7808060207871194e-7
0.17387624002162508 	 -1.7808053852592353e-7
0.1754867149648151 	 -1.7808047379059118e-7
0.17711210643450878 	 -1.7808040785072383e-7
0.1787525525904235 	 -1.780803406838658e-7
0.18040819287193827 	 -1.7808027226725432e-7
0.18207916800994628 	 -1.7808020257750546e-7
0.18376562003881713 	 -1.780801315910848e-7
0.18546769230846985 	 -1.780800592837726e-7
0.18718552949655787 	 -1.780799856310318e-7
0.18891927762076663 	 -1.780799106078328e-7
0.19066908405122523 	 -1.7807983418868199e-7
0.19243509752303312 	 -1.7807975634758921e-7
0.1942174681489026 	 -1.7807967705811026e-7
0.1960163474319185 	 -1.7807959629325192e-7
0.19783188827841644 	 -1.7807951402568876e-7
0.1996642450109794 	 -1.7807943022735983e-7
0.20151357338155576 	 -1.7807934486980373e-7
0.20338003058469817 	 -1.7807925792401662e-7
0.20526377527092515 	 -1.7807916936049436e-7
0.2071649675602069 	 -1.780790791491322e-7
0.20908376905557505 	 -1.7807898725921013e-7
0.21102034285685956 	 -1.7807889365952627e-7
0.21297485357455204 	 -1.7807879831834764e-7
0.214947467343798 	 -1.7807870120318212e-7
0.21693835183851842 	 -1.780786022810568e-7
0.2189476762856621 	 -1.7807850151835995e-7
0.22097561147959022 	 -1.7807839888090487e-7
0.2230223297965938 	 -1.7807829433376303e-7
0.22508800520954617 	 -1.7807818784139542e-7
0.2271728133026905 	 -1.7807807936763862e-7
0.22927693128656493 	 -1.78077968875637e-7
0.2314005380130653 	 -1.780778563278415e-7
0.23354381399064789 	 -1.7807774168604613e-7
0.23570694139967277 	 -1.7807762491124845e-7
0.23789010410788933 	 -1.780775059637641e-7
0.24009348768606525 	 -1.780773848032252e-7
0.24231727942375994 	 -1.7807726138844815e-7
0.2445616683452446 	 -1.7807713567750902e-7
0.24682684522556925 	 -1.7807700762766633e-7
0.24911300260677885 	 -1.7807687719542587e-7
0.2514203348142797 	 -1.7807674433651167e-7
0.253749037973357 	 -1.7807660900580114e-7
0.25609931002584585 	 -1.780764711572134e-7
0.2584713507469564 	 -1.7807633074401317e-7
0.26086536176225483 	 -1.7807618771845692e-7
0.26328154656480207 	 -1.7807604203193524e-7
0.26572011053245054 	 -1.7807589363503664e-7
0.2681812609453015 	 -1.7807574247729502e-7
0.27066520700332414 	 -1.7807558850734603e-7
0.2731721598441377 	 -1.7807543167293873e-7
0.27570233256095833 	 -1.7807527192078227e-7
0.2782559402207124 	 -1.780751091965893e-7
0.2808331998823172 	 -1.7807494344508e-7
0.2834343306151309 	 -1.7807477461000829e-7
0.2860595535175743 	 -1.780746026339858e-7
0.2887090917359235 	 -1.7807442745863435e-7
0.2913831704832787 	 -1.780742490244213e-7
0.2940820170587063 	 -1.7807406727073387e-7
0.29680586086656024 	 -1.7807388213589345e-7
0.2995549334359814 	 -1.7807369355693891e-7
0.3023294684405778 	 -1.7807350146992665e-7
0.3051297017182869 	 -1.7807330580960114e-7
0.3079558712914226 	 -1.7807310650946895e-7
0.3108082173869064 	 -1.7807290350188484e-7
0.31368698245668775 	 -1.7807269671790213e-7
0.3165924111983522 	 -1.7807248608730064e-7
0.3195247505759212 	 -1.7807227153856e-7
0.3224842498408441 	 -1.7807205299881187e-7
0.3254711605531848 	 -1.780718303938651e-7
0.32848573660300445 	 -1.7807160364812782e-7
0.33152823423194244 	 -1.7807137268465933e-7
0.33459891205499737 	 -1.7807113742499915e-7
0.3376980310825091 	 -1.7807089778928185e-7
0.34082585474234517 	 -1.7807065369609733e-7
0.3439826489022925 	 -1.7807040506266447e-7
0.3471686818926561 	 -1.7807015180453857e-7
0.3503842245290674 	 -1.780698938357687e-7
0.35362955013550423 	 -1.780696310687099e-7
0.356904934567523 	 -1.780693634142395e-7
0.3602106562357071 	 -1.7806909078149432e-7
0.36354699612933195 	 -1.780688130778886e-7
0.36691423784024924 	 -1.780685302092302e-7
0.37031266758699266 	 -1.7806824207942001e-7
0.3737425742391064 	 -1.780679485907751e-7
0.3772042493416998 	 -1.780676496435934e-7
0.3806979871402286 	 -1.7806734513645008e-7
0.38422408460550594 	 -1.7806703496605446e-7
0.3877828414589457 	 -1.7806671902710563e-7
0.39137456019803846 	 -1.780663972123078e-7
0.3949995461220644 	 -1.7806606941266142e-7
0.3986581073580441 	 -1.7806573551677106e-7
0.40235055488692917 	 -1.7806539541139213e-7
0.4060772025700365 	 -1.780650489811319e-7
0.4098383671757262 	 -1.780646961084976e-7
0.41363436840632745 	 -1.7806433667368842e-7
0.4174655289253137 	 -1.780639705548452e-7
0.4213321743847288 	 -1.780635976277352e-7
0.42523463345286816 	 -1.780632177658443e-7
0.4291732378422158 	 -1.7806283084034458e-7
0.43314832233763995 	 -1.780624367200053e-7
0.43716022482485045 	 -1.7806203527112624e-7
0.4412092863191189 	 -1.780616263575549e-7
0.4452958509942655 	 -1.780612098406202e-7
0.4494202662119143 	 -1.7806078557912078e-7
0.4535828825510188 	 -1.7806035342910316e-7
0.45778405383766185 	 -1.780599132440852e-7
0.4620241371751312 	 -1.780594648748063e-7
0.4663034929742731 	 -1.7805900816923578e-7
0.47062248498412823 	 -1.7805854297256193e-7
0.47498148032285015 	 -1.7805806912701715e-7
0.4793808495089109 	 -1.7805758647204286e-7
0.4838209664925956 	 -1.7805709484400267e-7
0.488302208687788 	 -1.780565940762253e-7
0.4928249570040514 	 -1.780560839990352e-7
0.49738959587900644 	 -1.7805556443951623e-7
0.5019965133110081 	 -1.780550352215932e-7
0.5066461008921267 	 -1.780544961659398e-7
0.5113387538414326 	 -1.780539470899008e-7
0.5160748710385908 	 -1.7805338780739372e-7
0.5208548550577662 	 -1.7805281812895475e-7
0.5256791122018423 	 -1.7805223786155628e-7
0.5305480525369572 	 -1.780516468086599e-7
0.5354620899273608 	 -1.7805104476997403e-7
0.5404216420705915 	 -1.7805043154166125e-7
0.5454271305329833 	 -1.780498069159474e-7
0.5504789807854971 	 -1.7804917068130207e-7
0.5555776222398876 	 -1.7804852262228482e-7
0.5607234882852032 	 -1.7804786251940765e-7
0.5659170163246243 	 -1.7804719014913006e-7
0.5711586478126431 	 -1.7804650528384896e-7
0.5764488282925877 	 -1.7804580769169456e-7
0.5817880074344934 	 -1.7804509713650596e-7
0.5871766390733255 	 -1.7804437337778115e-7
0.5926151812475554 	 -1.780436361704941e-7
0.598104096238094 	 -1.7804288526518866e-7
0.6036438506075867 	 -1.7804212040772207e-7
0.609234915240071 	 -1.780413413392651e-7
0.6148777653810024 	 -1.7804054779625472e-7
0.6205728806776502 	 -1.7803973951015823e-7
0.6263207452198689 	 -1.7803891620759492e-7
0.6321218475812452 	 -1.7803807761001675e-7
0.6379766808606282 	 -1.7803722343381135e-7
0.643885742724042 	 -1.780363533901126e-7
0.649849535446989 	 -1.7803546718462467e-7
0.6558685659571432 	 -1.7803456451782046e-7
0.6619433458774393 	 -1.7803364508440014e-7
0.6680743915695614 	 -1.7803270857356073e-7
0.6742622241778342 	 -1.7803175466874744e-7
0.6805073696735208 	 -1.780307830475099e-7
0.6868103588995303 	 -1.7802979338156246e-7
0.6931717276155405 	 -1.7802878533646438e-7
0.6995920165435373 	 -1.7802775857158488e-7
0.7060717714137773 	 -1.7802671274001552e-7
0.7126115430111748 	 -1.780256474885426e-7
0.7192118872221189 	 -1.7802456245736204e-7
0.7258733650817251 	 -1.780234572799948e-7
0.732596542821523 	 -1.7802233158328617e-7
0.7393819919175867 	 -1.7802118498722104e-7
0.746230289139111 	 -1.780200171047095e-7
0.7531420165974372 	 -1.7801882754155947e-7
0.7601177617955328 	 -1.7801761589625322e-7
0.7671581176779302 	 -1.7801638176000365e-7
0.7742636826811271 	 -1.7801512471641906e-7
0.7814350607844545 	 -1.7801384434143637e-7
0.7886728615614153 	 -1.7801254020311272e-7
0.7959777002314984 	 -1.7801121186172006e-7
0.8033501977124734 	 -1.7800985886936654e-7
0.8107909806731688 	 -1.7800848076983075e-7
0.8183006815867393 	 -1.7800707709865065e-7
0.8258799387844268 	 -1.7800564738271514e-7
0.8335293965098194 	 -1.7800419114027013e-7
0.8412497049736117 	 -1.7800270788065211e-7
0.8490415204088748 	 -1.7800119710420901e-7
0.856905505126835 	 -1.7799965830211707e-7
0.8648423275731723 	 -1.7799809095613393e-7
0.8728526623848377 	 -1.7799649453865297e-7
0.880937190447399 	 -1.7799486851224188e-7
0.8890965989529159 	 -1.7799321232970215e-7
0.8973315814583523 	 -1.7799152543373208e-7
0.905642837944529 	 -1.7798980725676084e-7
0.914031074875623 	 -1.7798805722093996e-7
0.9224970052592174 	 -1.7798627473771178e-7
0.9310413487069077 	 -1.7798445920768262e-7
0.9396648314954694 	 -1.779826100206301e-7
0.9483681866285923 	 -1.7798072655503152e-7
0.9571521538991863 	 -1.7797880817800924e-7
0.9660174799522646 	 -1.7797685424513783e-7
0.9749649183484088 	 -1.779748641000783e-7
0.983995229627823 	 -1.77972837074653e-7
0.9931091813749796 	 -1.779707724883883e-7
1.0023075482838653 	 -1.7796851371045707e-7
1.0115911122238297 	 -1.7796636897414528e-7
1.0209606623060468 	 -1.7796418450402166e-7
1.030416994950588 	 -1.779619595673416e-7
1.03996091395412 	 -1.7795969341814722e-7
1.0495932305582274 	 -1.7795738529673814e-7
1.05931476351837 	 -1.7795503442955584e-7
1.0691263391734764 	 -1.7795264002908105e-7
1.079028791516184 	 -1.7795020129316185e-7
1.0890229622637302 	 -1.7794771740515373e-7
1.099109700929497 	 -1.7794518753361732e-7
1.1092898648952227 	 -1.7794261083172704e-7
1.1195643194838785 	 -1.7793998643754106e-7
1.1299339380332223 	 -1.7793731347305709e-7
1.1403996019700327 	 -1.7793459104453324e-7
1.1509622008850322 	 -1.7793181824183723e-7
1.161622632608502 	 -1.7792899413847468e-7
1.172381803286599 	 -1.7792611779090632e-7
1.1832406274583787 	 -1.7792318823860364e-7
1.194200028133532 	 -1.7792020450363821e-7
1.2052609368708425 	 -1.779171655902924e-7
1.216424293857368 	 -1.77914070484865e-7
1.2276910479883596 	 -1.7791091815521562e-7
1.2390621569479163 	 -1.779077075504265e-7
1.250538587290391 	 -1.7790443760066434e-7
1.2621213145225472 	 -1.779011072166661e-7
1.2738113231864785 	 -1.778977152894385e-7
1.2856096069432956 	 -1.778942606900097e-7
1.2975171686575875 	 -1.7789074226891706e-7
1.3095350204826672 	 -1.7788715885600935e-7
1.321664183946605 	 -1.7788350926012548e-7
1.333905690039059 	 -1.7787979226833375e-7
1.3462605792989102 	 -1.778760066462301e-7
1.35872990190271 	 -1.7787215113698845e-7
1.371314717753945 	 -1.7786822446120055e-7
1.3840160965731314 	 -1.7786422531634926e-7
1.39683511798874 	 -1.7786015237658876e-7
1.4097728716289668 	 -1.778560042921455e-7
1.4228304572143526 	 -1.7785177968908416e-7
1.4360089846512603 	 -1.778474771687548e-7
1.4493095741262165 	 -1.7784309530723774e-7
1.46273335620113 	 -1.7783863265536133e-7
1.47628147190939 	 -1.778340877377107e-7
1.4899550728528546 	 -1.7782945905268822e-7
1.503755321299738 	 -1.778247450718073e-7
1.5176833902834053 	 -1.7781994423949951e-7
1.53174046370208 	 -1.778150549722566e-7
1.5459277364194774 	 -1.7781007565838292e-7
1.5602464143663688 	 -1.778050046575077e-7
1.5746977146430863 	 -1.777998402997171e-7
1.5892828656229778 	 -1.7779458088561818e-7
1.6040031070568201 	 -1.7778922468543806e-7
1.6188596901781982 	 -1.777837699385345e-7
1.6338538778098612 	 -1.7777821485324948e-7
1.6489869444710645 	 -1.777725576061821e-7
1.6642601764859035 	 -1.777667963416583e-7
1.6796748720926535 	 -1.7776092917109426e-7
1.6952323415541204 	 -1.7775495417280114e-7
1.7109339072690144 	 -1.777488693912513e-7
1.7267809038843556 	 -1.777426728362624e-7
1.742774678408919 	 -1.777363624826526e-7
1.7589165903277328 	 -1.777299362691547e-7
1.775208011717635 	 -1.7772339209874334e-7
1.7916503273639006 	 -1.7771672783728793e-7
1.8082449348779512 	 -1.7770994131347513e-7
1.8249932448161523 	 -1.7770303031772994e-7
1.8418966807997113 	 -1.776959926018073e-7
1.8589566796356871 	 -1.7768882587861012e-7
1.8761746914391206 	 -1.7768152782062224e-7
1.893552179756295 	 -1.7767409605990533e-7
1.911090621689138 	 -1.7766652818685508e-7
1.9287915080207783 	 -1.776588217505174e-7
1.9466563433422621 	 -1.7765097425729453e-7
1.9646866461804458 	 -1.7764298317078012e-7
1.982883949127071 	 -1.7763484591014678e-7
2.001249798969037 	 -1.7762655985011244e-7
2.019785756819879 	 -1.7761812231972486e-7
2.0384933982524633 	 -1.776095306024162e-7
2.0573743134329128 	 -1.7760078193434196e-7
2.0764301072557747 	 -1.77591873504443e-7
2.095662399480433 	 -1.7758280245363668e-7
2.115072824868795 	 -1.7757356587335128e-7
2.1346630333242445 	 -1.7756416080547043e-7
2.154434690031884 	 -1.7755458424122578e-7
2.17438947560008 	 -1.775448331205633e-7
2.194529086203314 	 -1.7753490433198888e-7
2.2148552337263596 	 -1.775247947112755e-7
2.2353696459097954 	 -1.7751450104041787e-7
2.256074066496861 	 -1.7750402004725196e-7
2.2769702553816797 	 -1.7749334840381288e-7
2.2980599887588515 	 -1.7748248272633883e-7
2.3193450592744282 	 -1.7747141957429075e-7
2.340827276178293 	 -1.7746015544934408e-7
2.362508465477947 	 -1.7744868679582953e-7
2.38439047009372 	 -1.7743700999815216e-7
2.4064751500154244 	 -1.7742512138059065e-7
2.428764382460451 	 -1.7741301720586539e-7
2.4512600620333385 	 -1.7740069367444923e-7
2.4739641008868136 	 -1.773881469237665e-7
2.4968784288843264 	 -1.7737537302780212e-7
2.5200049937640925 	 -1.7736236799593158e-7
2.543345761304649 	 -1.7734912777216087e-7
2.5669027154919504 	 -1.7733564823463976e-7
2.590677858688008 	 -1.7732192519414082e-7
2.6146732118010916 	 -1.7730795439395358e-7
2.6388908144575107 	 -1.7729373150786148e-7
2.663332725174982 	 -1.7727925213930012e-7
2.6880010215376062 	 -1.7726451182108319e-7
2.7128978003724664 	 -1.7724950601411142e-7
2.7380251779278577 	 -1.772342301067068e-7
2.7633852900531704 	 -1.7721867941372638e-7
2.7889802923804408 	 -1.7720284917529012e-7
2.8148123605075797 	 -1.7718673455620093e-7
2.8408836901833032 	 -1.771703306450253e-7
2.8671964974937696 	 -1.7715363245421582e-7
2.893753019050951 	 -1.7713663491810807e-7
2.9205555121827462 	 -1.7711933289157298e-7
2.9476062551248576 	 -1.7710172114911318e-7
2.97490754721444 	 -1.7708379438378586e-7
3.002461709085549 	 -1.770655472074815e-7
3.030271082866397 	 -1.7704697415098658e-7
3.058338032378433 	 -1.770280696609641e-7
3.0866649433372735 	 -1.7700882809939133e-7
3.115254223555487 	 -1.7698924374243725e-7
3.1441083031472647 	 -1.769693107808879e-7
3.173229634734977 	 -1.7694902331946637e-7
3.202620693657652 	 -1.7692837537529154e-7
3.2322839781813792 	 -1.7690736087655622e-7
3.262222009711669 	 -1.7688597366362447e-7
3.292437333007769 	 -1.7686420748603293e-7
3.3229325163989727 	 -1.7684205600141556e-7
3.3537101520029307 	 -1.7681951277661605e-7
3.384772855945981 	 -1.7679657128691978e-7
3.4161232685855274 	 -1.7677322491282103e-7
3.4477640547344643 	 -1.7674946694050837e-7
3.4796979038876925 	 -1.767252905628166e-7
3.5119275304507296 	 -1.7670068887960446e-7
3.5444556739704347 	 -1.7667565489516242e-7
3.5772850993678724 	 -1.7665018151738798e-7
3.610418597173337 	 -1.7662426155959406e-7
3.6438589837635456 	 -1.765978877382647e-7
3.6776091016010324 	 -1.7657105267216075e-7
3.711671819475766 	 -1.7654374888203373e-7
3.746050032748992 	 -1.7651596879164311e-7
3.7807466635993494 	 -1.7648770472595342e-7
3.8157646612712495 	 -1.7645894891133834e-7
3.8511070023255707 	 -1.7642969347688513e-7
3.886776690892667 	 -1.7639993045379902e-7
3.9227767589277187 	 -1.7636965177346932e-7
3.9591102664684588 	 -1.7633884926968627e-7
3.9957803018952704 	 -1.7630751467856847e-7
4.032789982193707 	 -1.7627563963779047e-7
4.070142453219438 	 -1.762432156883968e-7
4.1078408899656464 	 -1.762102342746787e-7
4.145888496832911 	 -1.7617668674319102e-7
4.184288507901582 	 -1.7614256434557756e-7
4.223044187206674 	 -1.7610785823866947e-7
4.262158829015324 	 -1.760725594835511e-7
4.301635758106795 	 -1.7603665904823922e-7
4.341478330055092 	 -1.760001478082531e-7
4.381689931514191 	 -1.7596301654728692e-7
4.422273980505899 	 -1.7592525596006945e-7
4.463233926710396 	 -1.7588685665332e-7
4.504573251759458 	 -1.7584780914542107e-7
4.5462954695324 	 -1.7580810387139521e-7
4.5884041264547575 	 -1.7576773118400805e-7
4.630902801799739 	 -1.7572668135359886e-7
4.673795107992462 	 -1.7568494457227434e-7
4.717084690917018 	 -1.7564251095755918e-7
4.760775230226369 	 -1.755993705506171e-7
4.80487043965513 	 -1.755555133205307e-7
4.849374067335235 	 -1.7551092917071366e-7
4.894289896114531 	 -1.7546560794272932e-7
4.9396217438783205 	 -1.7541953941826835e-7
4.985373463873895 	 -1.7537271332502977e-7
5.031548945038053 	 -1.75325119338053e-7
5.078152112327674 	 -1.7527674708336347e-7
5.125186927053331 	 -1.752275861431204e-7
5.172657387216019 	 -1.7517762606022484e-7
5.220567527846977 	 -1.7512685634690916e-7
5.268921421350674 	 -1.7507526649023478e-7
5.3177231778509695 	 -1.7502284595683016e-7
5.3669769455404746 	 -1.7496958419769276e-7
5.416686911033152 	 -1.7491547065688984e-7
5.466857299720182 	 -1.7486049477837633e-7
