# This is an integration map on mu of the ξ multipole lensing_integratedgp GR effect.
# The following parameters were used for this computation: 
# CLASS Power Spectrum input file : "../test/datatest/file_pk.txt"
# F window function input file : "../test/datatest/F_REFERENCE.txt"
# CLASS Background input file: "../test/datatest/WideA_ZA_background.dat"
# 	 z_min = 0.05 	 z_max = 0.2
# 	 k_min = 1.0e-8 	 k_max = 10.0
# 	 h_0 = 0.7 	 Ω_b = 0.0489 	 Ω_cdm = 0.25102 	 Ω_M0 = 0.29992
# 	 comoving s_min = 148.1920001465757 Mpc/h_0
# 	 comoving s_max = 571.7022420258767 Mpc/h_0
# 	 comoving s_eff = 435.3747095690664 Mpc/h_0
# 	 comoving z_eff = 0.15045636096023224 
# 	 Volume of the survey V_survey = 3.845366167995967e8
# 	 σ_0 = 15.593462966741178
# 	 σ_1 = 15.074895881392285
# 	 σ_2 = 100.85852368830221
# 	 σ_3 = 3735.1227501923527
# 
# computational time needed (in s) : 5.1371
# kwards passed: 
# 		use_windows = false
# 		L = 0
# 		en = 1.0e12
# 		N_χs = 30
# 		μ_atol = 0.0
# 		enhancer = 1.0e8
# 		N_μs = 30
# 		N_log = 100
# 		μ_rtol = 0.01
# 
# s [Mpc/h_0] 	 	 xi
0.1 	 2.2275093507665935e-9
0.10974987654930562 	 2.227500486129129e-9
0.12045035402587821 	 2.2274906951003246e-9
0.1321941148466029 	 2.227481458389176e-9
0.14508287784959398 	 2.2274699513722752e-9
0.1592282793341092 	 2.2274576618312815e-9
0.17475284000076838 	 2.227443787458938e-9
0.19179102616724888 	 2.2274265132461462e-9
0.21049041445120203 	 2.227404148106271e-9
0.23101297000831597 	 2.2273820255778502e-9
0.2535364493970112 	 2.2273554578968615e-9
0.2782559402207124 	 2.227324125882552e-9
0.30538555088334157 	 2.2272892126659263e-9
0.3351602650938842 	 2.2272474288532663e-9
0.3678379771828633 	 2.2272000242898753e-9
0.40370172585965547 	 2.2271460886977913e-9
0.44306214575838804 	 2.2270832783051767e-9
0.4862601580065353 	 2.2270104648631724e-9
0.533669923120631 	 2.2269275720053385e-9
0.5857020818056666 	 2.22683142888298e-9
0.6428073117284321 	 2.2267208691678446e-9
0.7054802310718643 	 2.2265936691216453e-9
0.7742636826811271 	 2.2264475714421795e-9
0.8497534359086443 	 2.226279639913728e-9
0.9326033468832199 	 2.226086891372816e-9
1.0235310218990261 	 2.225865098861937e-9
1.1233240329780274 	 2.225611668655965e-9
1.2328467394420661 	 2.2253214532595937e-9
1.353047774579807 	 2.2249893807702043e-9
1.484968262254465 	 2.2246097790841862e-9
1.6297508346206442 	 2.2241762451852882e-9
1.788649529057435 	 2.223681647900298e-9
1.9630406500402708 	 2.223117955779123e-9
2.154434690031884 	 2.2224760274095746e-9
2.3644894126454075 	 2.2217458897468974e-9
2.595024211399736 	 2.220916288131465e-9
2.8480358684358014 	 2.2199746212952085e-9
3.1257158496882362 	 2.2189068244497673e-9
3.4304692863149184 	 2.2176971666468885e-9
3.7649358067924683 	 2.216327983088704e-9
4.132012400115337 	 2.2147794061146112e-9
4.534878508128582 	 2.213029010179321e-9
4.977023564332112 	 2.2110513789776574e-9
5.462277217684341 	 2.2088175926527827e-9
5.99484250318941 	 2.2062946313891373e-9
6.579332246575681 	 2.2034446972711368e-9
7.220809018385464 	 2.2002244736106586e-9
7.924828983539173 	 2.196584324181437e-9
8.697490026177835 	 2.192467451443182e-9
9.54548456661834 	 2.1878089948481262e-9
10.476157527896646 	 2.182535074721027e-9
11.497569953977356 	 2.176561812596903e-9
12.618568830660204 	 2.169794464314924e-9
13.848863713938732 	 2.1621269307119494e-9
15.199110829529339 	 2.1534420045164175e-9
16.68100537200059 	 2.14361292731812e-9
18.30738280295368 	 2.1325060366699365e-9
20.09233002565047 	 2.1199828608134696e-9
22.051307399030456 	 2.1059011404231823e-9
24.20128264794382 	 2.0901147351015034e-9
26.560877829466868 	 2.072472932773257e-9
29.150530628251772 	 2.0528200422104017e-9
31.992671377973828 	 2.030996591830292e-9
35.11191734215131 	 2.0068432042160327e-9
38.53528593710529 	 1.980204279697898e-9
42.29242874389499 	 1.9509302497626878e-9
46.4158883361278 	 1.9188793695691268e-9
50.94138014816378 	 1.883922115482832e-9
55.90810182512222 	 1.845944398334014e-9
61.35907273413173 	 1.8048502475194728e-9
67.34150657750821 	 1.760567434247324e-9
73.90722033525779 	 1.7130493472611475e-9
81.11308307896873 	 1.6622784455079215e-9
89.02150854450383 	 1.608270313648608e-9
97.70099572992251 	 1.551071627979668e-9
107.22672220103232 	 1.4907567701817833e-9
117.68119524349979 	 1.4274193659202469e-9
129.1549665014884 	 1.3611865835043664e-9
141.74741629268047 	 1.292257328639048e-9
155.56761439304722 	 1.2209303269532672e-9
170.73526474706904 	 1.147607809097655e-9
187.3817422860385 	 1.0727894855466277e-9
205.65123083486515 	 9.970548443084714e-10
225.7019719633919 	 9.210391604348642e-10
247.70763559917114 	 8.454294702129604e-10
271.85882427329403 	 7.709578683872981e-10
298.364724028334 	 6.983927170804738e-10
327.45491628777285 	 6.285300463092808e-10
359.38136638046257 	 5.621932326361983e-10
394.4206059437656 	 5.002285453621181e-10
432.8761281083057 	 4.4343859323947047e-10
475.0810162102798 	 3.923403823823322e-10
521.4008287999684 	 3.469067031856346e-10
572.236765935022 	 3.067500626494504e-10
628.0291441834253 	 2.713496593003003e-10
689.2612104349695 	 2.401684973698231e-10
756.463327554629 	 2.1270816643516266e-10
830.2175681319744 	 1.8851873167385975e-10
911.1627561154896 	 1.6720693716495798e-10
1000.0 	 1.4842370676975491e-10
