# This is an integration map on mu of the auto_lensing GR effect.
# The following parameters were used for this computation: 
# CLASS Power Spectrum input file : "data/WideA_ZA_pk.dat"
# F window function input file : "data/F_REFERENCE.txt"
# CLASS Background input file: "data/WideA_ZA_background.dat"
# 	 z_min = 0.05 	 z_max = 0.2
# 	 k_min = 1.0e-8 	 k_max = 10.0
# 	 h_0 = 0.7 	 Ω_b = 0.0489 	 Ω_cdm = 0.25102 	 Ω_M0 = 0.29992
# 	 comoving s_min = 148.1920001343431 Mpc/h_0
# 	 comoving s_max = 571.7022420911966 Mpc/h_0
# 	 comoving s_eff = 435.37470960794167 Mpc/h_0
# 	 comoving z_eff = 0.15045636097417317 
# 	 Volume of the survey V_survey = 3.845366169354268e8
# 	 σ_0 = 18.584280735797098
# 	 σ_1 = 15.75556280411702
# 	 σ_2 = 101.0636221421908
# 	 σ_3 = 18.584280735797098
# 
# computational time needed (in s) : 121.6666
# kwards passed: 
# 		use_windows = false
# 		N_χs = 100
# 		enhancer = 1.0e14
# 		frac_Δχ_min = 0.001
# 		μ_steps = 35
# 
# s [Mpc/h_0] 	 	 xi
0.1 	 9.422897513986435e-7
0.10974987654930562 	 9.386297449643977e-7
0.12045035402587821 	 9.503640241253346e-7
0.1321941148466029 	 9.458010261606902e-7
0.14508287784959398 	 9.408641051317818e-7
0.1592282793341092 	 9.410098617139218e-7
0.17475284000076838 	 9.382447800558732e-7
0.19179102616724888 	 9.371935312764426e-7
0.21049041445120203 	 9.365738961503511e-7
0.23101297000831597 	 9.335771017347386e-7
0.2535364493970112 	 9.29006514646175e-7
0.2782559402207124 	 9.250106741981243e-7
0.30538555088334157 	 9.190560798576765e-7
0.3351602650938842 	 9.123454272859203e-7
0.3678379771828633 	 9.044781207897964e-7
0.40370172585965547 	 8.94986297458764e-7
0.44306214575838804 	 8.843243626935861e-7
0.4862601580065353 	 8.719395702246893e-7
0.533669923120631 	 8.578703604497001e-7
0.5857020818056666 	 8.421915344184856e-7
0.6428073117284321 	 8.248828895594475e-7
0.7054802310718643 	 8.06153830994298e-7
0.7742636826811271 	 7.86214126443676e-7
0.8497534359086443 	 7.654272294064692e-7
0.9326033468832199 	 7.442130530168902e-7
1.0235310218990261 	 7.229969335118551e-7
1.1233240329780274 	 7.021689351407076e-7
1.2328467394420661 	 6.820075046232398e-7
1.353047774579807 	 6.626291732292671e-7
1.484968262254465 	 6.440170207869146e-7
1.6297508346206442 	 6.260775794905866e-7
1.788649529057435 	 6.087220898102028e-7
1.9630406500402708 	 5.919216952796288e-7
2.154434690031884 	 5.756480349452015e-7
2.3644894126454075 	 5.598615912492073e-7
2.595024211399736 	 5.444796324499675e-7
2.8480358684358014 	 5.294217339617921e-7
3.1257158496882362 	 5.146141595217283e-7
3.4304692863149184 	 4.999645256117613e-7
3.7649358067924683 	 4.853782537579157e-7
4.132012400115337 	 4.7077181150193916e-7
4.534878508128582 	 4.560652164513605e-7
4.977023564332112 	 4.410390940694413e-7
5.462277217684341 	 4.25463658574931e-7
5.99484250318941 	 4.108737927626776e-7
6.579332246575681 	 3.9807458879590475e-7
7.220809018385464 	 3.8031869149080606e-7
7.924828983539173 	 3.6412980571880264e-7
8.697490026177835 	 3.4837642862555936e-7
9.54548456661834 	 3.3273823712685495e-7
10.476157527896646 	 3.1522826020423805e-7
11.497569953977356 	 3.009699435663923e-7
12.618568830660204 	 2.854411811721694e-7
13.848863713938732 	 2.713456267117161e-7
15.199110829529339 	 2.546092783267029e-7
16.68100537200059 	 2.394931155405986e-7
18.30738280295368 	 2.2466579653510656e-7
20.09233002565047 	 2.1020183740697578e-7
22.051307399030456 	 1.9605119407096707e-7
24.20128264794382 	 1.8228956898171653e-7
26.560877829466868 	 1.6901146155791197e-7
29.150530628251772 	 1.5619081804161137e-7
31.992671377973828 	 1.4386939315829105e-7
35.11191734215131 	 1.3209227626739926e-7
38.53528593710529 	 1.2087440201331782e-7
42.29242874389499 	 1.1024276445328711e-7
46.4158883361278 	 1.0020548287278474e-7
50.94138014816378 	 9.076998152289816e-8
55.90810182512222 	 8.194491719629904e-8
61.35907273413173 	 7.373872369921671e-8
67.34150657750821 	 6.614190351472505e-8
73.90722033525779 	 5.912819596002117e-8
81.11308307896873 	 5.271175650170228e-8
89.02150854450383 	 4.6861968570620457e-8
97.70099572992251 	 4.156726931435205e-8
107.22672220103232 	 3.680009611063833e-8
117.68119524349979 	 3.2544997172553827e-8
129.1549665014884 	 2.875038419854735e-8
141.74741629268047 	 2.5382027599836454e-8
155.56761439304722 	 2.2385195581929026e-8
170.73526474706904 	 1.9732925680113764e-8
187.3817422860385 	 1.738614822662509e-8
205.65123083486515 	 1.5305037554861517e-8
225.7019719633919 	 1.349104107904183e-8
247.70763559917114 	 1.1925293279198962e-8
271.85882427329403 	 1.0564785617534155e-8
298.364724028334 	 9.403789983619791e-9
327.45491628777285 	 8.402049427864182e-9
359.38136638046257 	 7.530062029828762e-9
394.4206059437656 	 6.78884784177392e-9
432.8761281083057 	 6.234259251654769e-9
475.0810162102798 	 5.576201776311405e-9
521.4008287999684 	 5.101845848098673e-9
572.236765935022 	 4.667759931800273e-9
628.0291441834253 	 4.294760045038602e-9
689.2612104349695 	 3.956816718238478e-9
756.463327554629 	 3.6396263842504814e-9
830.2175681319744 	 3.3656097376334057e-9
911.1627561154896 	 3.120803025683678e-9
1000.0 	 2.903581794896922e-9
