# Power Spectrum Multipole computation of the file: outputs/new_xi_lensing.txt
#
# For this PS_multipole computation we set: 
# 	 #points used in Fourier transform N = 128
# 	 multipole degree in consideration L = 0
# computational time needed (in s) : 0.6902
# kwards passed: none
# 
# k [h_0/Mpc] 	 	  P [(Mpc/h_0)^3]
0.001 	 0.01634514332600611
0.0010746078283213173 	 0.01633096804575524
0.0011547819846894584 	 0.01631550894828049
0.0012409377607517195 	 0.016272342328851615
0.001333521432163324 	 0.016188145491630404
0.001433012570236963 	 0.016077255910254308
0.001539926526059492 	 0.015912438800556376
0.0016548170999431816 	 0.01570329262239368
0.001778279410038923 	 0.015476357443502401
0.0019109529749704406 	 0.015175471047260037
0.0020535250264571464 	 0.014823643113725013
0.00220673406908459 	 0.014427128417855319
0.0023713737056616554 	 0.013967378124244085
0.002548296747979347 	 0.013433208627544461
0.0027384196342643613 	 0.012825252317662893
0.0029427271762092824 	 0.012147688303009578
0.0031622776601683794 	 0.011401148562573085
0.003398208328942559 	 0.010583221060158784
0.0036517412725483775 	 0.009687050777524893
0.003924189758484536 	 0.00872703023261211
0.004216965034285823 	 0.007716876736916796
0.004531583637600819 	 0.006669172380826454
0.004869675251658632 	 0.005612442221114313
0.005232991146814948 	 0.004575734314402597
0.005623413251903492 	 0.003595991759951246
0.0060429639023813295 	 0.0027114613360171777
0.006493816315762115 	 0.0019655853667395703
0.006978305848598665 	 0.0013903304516608254
0.00749894209332456 	 0.001006126208844008
0.008058421877614819 	 0.000811856519591852
0.008659643233600656 	 0.000784815073141064
0.00930572040929699 	 0.0008731080387405514
0.010000000000000002 	 0.001011177345159782
0.010746078283213178 	 0.0011266362900470514
0.011547819846894581 	 0.0011569776802874186
0.012409377607517199 	 0.001068547805006378
0.013335214321633246 	 0.0008755924594616031
0.014330125702369629 	 0.0006369325330188765
0.015399265260594923 	 0.00043754269861743156
0.016548170999431823 	 0.00034312602285603946
0.017782794100389236 	 0.00034756384601857877
0.019109529749704406 	 0.000379787289916063
0.020535250264571467 	 0.00036258080631928786
0.02206734069084591 	 0.00028643572255834267
0.02371373705661656 	 0.00020804145492243534
0.025482967479793475 	 0.0001777583795219628
0.02738419634264363 	 0.00017293321488914625
0.029427271762092824 	 0.0001519049192284344
0.031622776601683805 	 0.00012101971204221434
0.03398208328942561 	 0.00010378318555289577
0.03651741272548378 	 8.921721710762215e-5
0.03924189758484537 	 7.560304279435297e-5
0.04216965034285825 	 6.451494243714479e-5
0.04531583637600819 	 5.299910983070863e-5
0.04869675251658633 	 4.5274188790381996e-5
0.05232991146814949 	 3.756162310377609e-5
0.05623413251903492 	 3.112335319469008e-5
0.060429639023813334 	 2.5979158590068025e-5
0.06493816315762116 	 2.1470130495888346e-5
0.06978305848598665 	 1.7732346065449723e-5
0.07498942093324563 	 1.4626093156552112e-5
0.08058421877614821 	 1.2080801940435554e-5
0.08659643233600654 	 9.932740575646881e-6
0.09305720409296997 	 8.165132772886629e-6
0.10000000000000005 	 6.670737914937895e-6
0.10746078283213177 	 5.441550832291059e-6
0.11547819846894591 	 4.4314420327734915e-6
0.12409377607517202 	 3.6057649749602385e-6
0.13335214321633243 	 2.91650155167241e-6
0.14330125702369637 	 2.369961179373891e-6
0.15399265260594927 	 1.9142735209127688e-6
0.16548170999431816 	 1.5466247443919214e-6
0.17782794100389243 	 1.243643201639521e-6
0.19109529749704413 	 1.002448628232581e-6
0.2053525026457146 	 8.040204562407791e-7
0.22067340690845913 	 6.460071743887892e-7
0.23713737056616563 	 5.172947419073907e-7
0.25482967479793467 	 4.143187102722324e-7
0.27384196342643635 	 3.313130453203714e-7
0.29427271762092827 	 2.648458298675129e-7
0.3162277660168383 	 2.1152881587270893e-7
0.3398208328942562 	 1.6889850418934777e-7
0.3651741272548379 	 1.3488341792355113e-7
0.392418975848454 	 1.0773446277301058e-7
0.42169650342858256 	 8.612314235899994e-8
0.45315836376008195 	 6.884816169754235e-8
0.4869675251658636 	 5.5160989225886065e-8
0.523299114681495 	 4.4310954714212885e-8
0.5623413251903493 	 3.571596826256725e-8
0.6042963902381334 	 2.878440883854282e-8
0.6493816315762118 	 2.3284999945846196e-8
0.6978305848598666 	 1.8930623625103305e-8
0.7498942093324565 	 1.5444636087854036e-8
0.8058421877614824 	 1.265502350693932e-8
0.8659643233600657 	 1.0439459854457165e-8
0.9305720409296998 	 8.644355176281185e-9
1.0000000000000007 	 7.176842589340501e-9
1.0746078283213178 	 5.990880921725657e-9
1.1547819846894594 	 5.023694714583634e-9
1.2409377607517205 	 4.207224199870634e-9
1.3335214321633246 	 3.523323763912856e-9
1.4330125702369643 	 2.953404529476739e-9
1.539926526059493 	 2.468550904358232e-9
1.6548170999431822 	 2.060261135325638e-9
1.7782794100389245 	 1.7251605481703977e-9
1.910952974970442 	 1.4442669971170823e-9
2.0535250264571467 	 1.2118522888358903e-9
2.206734069084592 	 1.0179980392798993e-9
2.371373705661657 	 8.620544479349385e-10
2.5482967479793475 	 7.326504319869548e-10
2.7384196342643636 	 6.222113611218811e-10
2.9427271762092837 	 5.358288054581685e-10
3.1622776601683804 	 4.674338100002923e-10
3.3982083289425598 	 4.115076736984944e-10
3.6517412725483824 	 3.687564996525822e-10
3.9241897584845407 	 3.337201745535518e-10
4.216965034285826 	 3.0666274494869607e-10
4.531583637600821 	 2.8707225378584226e-10
4.8696752516586335 	 2.7362173398175375e-10
5.232991146814947 	 2.6441357332543936e-10
5.623413251903499 	 2.5858726948538827e-10
6.042963902381335 	 2.5528662630079545e-10
6.493816315762119 	 2.5385811229422213e-10
6.9783058485986675 	 2.543643939773891e-10
7.49894209332456 	 2.5583231051896287e-10
8.058421877614819 	 2.569205871392144e-10
8.659643233600665 	 2.577831114218904e-10
9.305720409297 	 2.5885997937916397e-10
