# This is an integration map on mu of the auto_lensing GR effect.
# The following parameters were used for this computation: 
# CLASS Power Spectrum input file : "data/WideA_ZA_pk.dat"
# F window function input file : "data/F_REFERENCE.txt"
# CLASS Background input file: "data/WideA_ZA_background.dat"
# 	 z_min = 0.05 	 z_max = 0.2
# 	 k_min = 1.0e-8 	 k_max = 10.0
# 	 h_0 = 0.7 	 Ω_b = 0.0489 	 Ω_cdm = 0.25102 	 Ω_M0 = 0.29992
# 	 comoving s_min = 148.1920001343431 Mpc/h_0
# 	 comoving s_max = 571.7022420911966 Mpc/h_0
# 	 comoving s_eff = 435.37470960794167 Mpc/h_0
# 	 comoving z_eff = 0.15045636097417317 
# 	 Volume of the survey V_survey = 3.845366169354268e8
# 	 σ_0 = 18.584280735797098
# 	 σ_1 = 15.75556280411702
# 	 σ_2 = 101.0636221421908
# 	 σ_3 = 18.584280735797098
# 
# computational time needed (in s) : 45.1760
# kwards passed: 
# 		use_windows = false
# 		N_χs = 100
# 		frac_Δχ_min = 1.0e-5
# 		enhancer = 1.0e10
# 		μ_steps = 10
# 
# s [Mpc/h_0] 	 	 xi
0.1 	 9.258555074197151e-7
0.10974987654930562 	 9.372352491488491e-7
0.12045035402587821 	 9.331529929921984e-7
0.1321941148466029 	 9.4889582916312e-7
0.14508287784959398 	 9.480980638431796e-7
0.1592282793341092 	 9.401793622018397e-7
0.17475284000076838 	 9.386365978919335e-7
0.19179102616724888 	 9.393462700046488e-7
0.21049041445120203 	 9.33834694928416e-7
0.23101297000831597 	 9.349648136885753e-7
0.2535364493970112 	 9.293152227305942e-7
0.2782559402207124 	 9.243453278911084e-7
0.30538555088334157 	 9.193706177286819e-7
0.3351602650938842 	 9.125839302075958e-7
0.3678379771828633 	 9.04490658066662e-7
0.40370172585965547 	 8.953381547829479e-7
0.44306214575838804 	 8.846391426212726e-7
0.4862601580065353 	 8.723708231090024e-7
0.533669923120631 	 8.58366713356519e-7
0.5857020818056666 	 8.427144690581832e-7
0.6428073117284321 	 8.254788584474958e-7
0.7054802310718643 	 8.068198657150232e-7
0.7742636826811271 	 7.869708279419327e-7
0.8497534359086443 	 7.662583173027978e-7
0.9326033468832199 	 7.451137327260124e-7
1.0235310218990261 	 7.239579119412879e-7
1.1233240329780274 	 7.031851407444469e-7
1.2328467394420661 	 6.830629713845782e-7
1.353047774579807 	 6.637126880234316e-7
1.484968262254465 	 6.451211827010134e-7
1.6297508346206442 	 6.271963283260659e-7
1.788649529057435 	 6.098519801127009e-7
1.9630406500402708 	 5.930630330664563e-7
2.154434690031884 	 5.76804048739364e-7
2.3644894126454075 	 5.610376371786558e-7
2.595024211399736 	 5.456849266964131e-7
2.8480358684358014 	 5.306680150498867e-7
3.1257158496882362 	 5.159152368959601e-7
3.4304692863149184 	 5.013346723171064e-7
3.7649358067924683 	 4.868301903640572e-7
4.132012400115337 	 4.723162492701198e-7
4.534878508128582 	 -0.0033433076535612696
4.977023564332112 	 4.4236642478820906e-7
5.462277217684341 	 4.255129262130834e-7
5.99484250318941 	 4.1291757450051744e-7
6.579332246575681 	 4.075583282208648e-7
7.220809018385464 	 3.8385002012628436e-7
7.924828983539173 	 1.7884207569452892e-7
8.697490026177835 	 2.613859940638263e-7
9.54548456661834 	 3.3548264697930397e-7
10.476157527896646 	 3.1325859831290507e-7
11.497569953977356 	 3.0319026514550916e-7
12.618568830660204 	 -0.000740061970844968
13.848863713938732 	 2.7792994317277445e-7
15.199110829529339 	 2.5162581349989385e-7
16.68100537200059 	 2.4219880580857807e-7
18.30738280295368 	 2.2739509162945887e-7
20.09233002565047 	 -0.00011906036436411016
22.051307399030456 	 3.813429945499374e-7
24.20128264794382 	 1.3866527876646223e-7
26.560877829466868 	 1.699223511809412e-7
29.150530628251772 	 1.59144842796185e-7
31.992671377973828 	 1.5157314424943106e-7
35.11191734215131 	 1.3500771706128645e-7
38.53528593710529 	 1.239934345587331e-7
42.29242874389499 	 1.1286071503908645e-7
46.4158883361278 	 1.0105979922609907e-7
50.94138014816378 	 1.1625993342255474e-7
55.90810182512222 	 8.486859343769399e-8
61.35907273413173 	 7.756504148078012e-8
67.34150657750821 	 6.899528163722572e-8
73.90722033525779 	 7.75896911376276e-8
81.11308307896873 	 5.507678625454503e-8
89.02150854450383 	 5.348643786558412e-8
97.70099572992251 	 4.592508080752812e-8
107.22672220103232 	 3.897696104947877e-8
117.68119524349979 	 3.507503750467057e-8
129.1549665014884 	 3.1300762794021444e-8
141.74741629268047 	 2.1082138935828924e-6
155.56761439304722 	 2.430519678271157e-8
170.73526474706904 	 2.2139193766449312e-8
187.3817422860385 	 5.620443003427018e-8
205.65123083486515 	 1.7618812359216333e-8
225.7019719633919 	 1.2781966359711704e-8
247.70763559917114 	 -1.1805472240280813e-5
271.85882427329403 	 1.2876141224720464e-8
298.364724028334 	 1.2884494519503354e-8
327.45491628777285 	 1.0694888646036363e-8
359.38136638046257 	 9.8532769809306e-9
394.4206059437656 	 9.226340635910975e-9
432.8761281083057 	 8.789016281989196e-9
475.0810162102798 	 7.804722636141588e-9
521.4008287999684 	 7.62556860593211e-9
572.236765935022 	 7.1740774020922674e-9
628.0291441834253 	 6.939516408528073e-9
689.2612104349695 	 -3.6383971840035434e-9
756.463327554629 	 6.391966453456261e-9
830.2175681319744 	 6.160431504503076e-9
911.1627561154896 	 5.976928951687286e-9
1000.0 	 5.8780158611023394e-9
