# This is an integration map on mu of the ξ multipole concerning the PP Matter.
###############
#    GaPSE    #
############### 
#
# The Cosmology considered had the following paremeters:
# 
# - Matter Power Spectrum input file: "../test/datatest/file_pk.txt"
# - Background data input file: "../test/datatest/WideA_ZA_background.dat"
# - F window function input file: "../test/datatest/F_REFERENCE_pi2.txt"
# - Integrated F window function input file: "../test/datatest/IntegrF_REFERENCE_pi2.txt"
#
# - Basic CosmoParams considered: 
#	 z_min = 0.05 	 z_max = 0.2
#	 θ_max = 1.5707963267948966 [rad] 	 h_0 = 0.7
#	 Ω_b = 0.0489 	 Ω_cdm = 0.25102 	 Ω_M0 = 0.29992
#	 b = 1.0 	 f_evo = 0.0 	 s_b = 0.0
#
# - CosmoParams about the Input Power Spectrum: 
#	 fit_left_min = 1.0e-6 	 fit_right_min = 10.0 	 
#	 fit_left_max = 3.0e-6 	 fit_right_max = 20.0 	 
#
# - CosmoParams about the Input Power Spectrum Tools: 
#	 k_max = 10.0 	 fit_max = 0.5 	 N = 1024 	 
#	 con = true 	 k_min = 1.0e-8 	 fit_min = 0.05 	 
#
# - CosmoParams about the Integrated Window Function F: 
#	 ss_step = 21.768735478453323 	 N = 1000 	 rtol = 0.01 	 
#	 llim = 0.0 	 atol = 0.0 	 rlim = Inf 	 
#	 ss_stop = 0.0 	 trap = true 	 ss_start = 0.0 	 
#
# - Computed quantities: 
# 	 effective redshift z_eff = 0.15045636096023224 
# 	 comoving s_min = 148.1920001465757 Mpc/h_0
# 	 comoving s_max = 571.7022420258767 Mpc/h_0
# 	 comoving s_eff = 435.3747095690664 Mpc/h_0
# 	 Volume of the survey V_survey = 3.845366167995967e8 Mpc^3/h_0^3
# 	 σ_0 = 15.593462966741178
# 	 σ_1 = 15.074895881392285
# 	 σ_2 = 100.85852368830226
# 	 σ_3 = 3735.1226181519773
# 	 (where σ_i = \int_{k_{min}}^{k_{max}}\frac{dq}{2 π^2} q^{2-i} P(q))
# 
# computational time needed (in s) : 0.0046
# kwards passed: 
# 		use_windows = false
# 		L = 2
# 		μ_atol = 0.0
# 		enhancer = 1.0e8
# 		pr = true
# 		N_log = 100
# 		μ_rtol = 0.01
# 
# s [Mpc/h_0] 	 	 xi
1.0 	 4.270964656901591
1.0233717986325197 	 4.193413583815196
1.0472898382363585 	 4.118661269765357
1.071766885445503 	 4.044617877404768
1.096816005273138 	 3.9712830766026688
1.1224505680853065 	 3.8986554532471045
1.1486842567375537 	 3.8267355139353447
1.1755310738783695 	 3.755522161889234
1.2030053494233244 	 3.685016045749838
1.2311217482038903 	 3.615217004877109
1.2598952777950274 	 3.546125437300867
1.2893412965257152 	 3.477742252889694
1.3194755216767062 	 3.4100677330338254
1.350314037869873 	 3.3431035421617143
1.3818733056536323 	 3.2768503341253834
1.4141701702890235 	 3.211310035310961
1.4472218707411348 	 3.146484080578258
1.4810460488806751 	 3.0823743971949495
1.5156607589006033 	 3.018983268208478
1.5510844769528402 	 2.956312703966873
1.587336111010209 	 2.894365625270752
1.6244350109588668 	 2.83314441630906
1.6624009789266123 	 2.7726523163262904
1.701254279852589 	 2.7128923213421285
1.7410156523040161 	 2.6538677796902808
1.7817063195457306 	 2.595582340918945
1.823348000868441 	 2.5380394560507655
1.8659629231817458 	 2.4812432784802665
1.9095738328780973 	 2.425197517795935
1.9542040079740532 	 2.3699065532481005
1.9998772705352859 	 2.315374513167225
2.04661799939199 	 2.2616057474103104
2.0944511431514696 	 2.2086048260471847
2.143402233514857 	 2.1563759759681385
2.193497398905059 	 2.1049240336901867
2.2447633784132237 	 2.054253189103898
2.2972275360711523 	 2.0043681991384794
2.3509178754572866 	 1.9552733349930727
2.405863054644066 	 1.9069729302452967
2.4620924014946257 	 1.859471302946234
2.519635929317015 	 1.8127721965282182
2.578524352884274 	 1.7668797167130441
2.6387891048289336 	 1.7217970372305382
2.7004623524206823 	 1.6775276207777214
2.763577014736159 	 1.6340741111085875
2.8281667802300325 	 1.5914389190250022
2.894266124716751 	 1.5496240286946739
2.961910329772554 	 1.5086305747865814
3.0311355015675785 	 1.468459550455863
3.1019785901380974 	 1.4291107509587762
3.1744774091091927 	 1.3905837307965567
3.248670655878376 	 1.3528768875498856
3.3245979322709407 	 1.3159879395889977
3.4022997656780687 	 1.2799137020645157
3.4818176306889654 	 1.2446498331186004
3.563193971228585 	 1.2101912654079807
3.646472223212748 	 1.1765315164602568
3.731696837732753 	 1.1436633137885763
3.8189133047818533 	 1.111577995948202
3.908168177536266 	 1.0802658485612289
3.9995090972036653 	 1.0497159740563946
4.09298481845244 	 1.0199161680806925
4.188645235435271 	 0.9908532505447905
4.286541408420927 	 0.9625126630021594
4.386725591048498 	 0.9348789747294323
4.489251258218605 	 0.9079355475897833
4.594173134636477 	 0.8816648728836572
4.701547224022132 	 0.8560486090585369
4.811430839003259 	 0.8310675796597001
4.923882631706739 	 0.8067022230600617
5.0389626250651505 	 0.78293234976059
5.156732244854966 	 0.759737783102486
5.277254352483538 	 0.7370981657520554
5.400593278542371 	 0.7149934430674151
5.526814857144603 	 0.6934040301605882
5.655986461065006 	 0.6723109185476865
5.788177037701276 	 0.6516962523825327
5.923457145875805 	 0.631543119589891
6.061898993497573 	 0.6118362859986037
6.203576476104273 	 0.5925619582209484
6.348565216305219 	 0.5737082721480574
6.496942604146123 	 0.5552653357193209
6.648787838417265 	 0.5372252219169772
6.804181968927099 	 0.5195823128272514
6.963207939763885 	 0.5023328530408518
7.125950633568409 	 0.4854753274385999
7.292496916841446 	 0.46900986244509263
7.462935686310136 	 0.45293826983650365
7.637357916378021 	 0.43726359283485094
7.815856707684089 	 0.42198964380280285
7.99852733679671 	 0.40712075309071094
8.185467307069027 	 0.3926609295259577
8.37677640068292 	 0.3786136736631985
8.572556731909325 	 0.36498110542452494
8.77291280161336 	 0.35176367513180884
8.977951553033323 	 0.3389596026360989
9.187782428863335 	 0.3265644900262756
9.402517429670132 	 0.31457123818895155
9.62227117367514 	 0.30296976212219356
9.847160957933774 	 0.2917473698196978
10.077306820944612 	 0.28088885993103596
10.312831606721847 	 0.2703772160860132
10.553861030365235 	 0.26019424701952976
10.800523745162529 	 0.2503214208952655
11.052951411260215 	 0.24074093804568955
11.311278765939214 	 0.23143651785514224
11.57564369553304 	 0.22239451336204344
11.846187309026837 	 0.21360442663183712
12.123054013376523 	 0.20505951208291032
12.406391590588319 	 0.1967568206679965
12.696351276599735 	 0.18869687323719744
12.993087842004158 	 0.1808830811741521
13.29675967466212 	 0.17332045977714858
13.607528864243331 	 0.1660144908126784
13.925561288744627 	 0.15896939502948634
14.251026703029977 	 0.15218686731790074
14.584098829439856 	 0.14566485060561252
14.924955450518299 	 0.139396856584683
15.27377850390714 	 0.13337210363960544
15.630754179458165 	 0.12757605533150487
15.996073018614878 	 0.12199211483460055
16.369930016117028 	 0.11660334029800877
16.752524724082154 	 0.1113947673559189
17.14406135851971 	 0.1063552388996899
17.544748908334597 	 0.1014786685777812
17.95480124687831 	 0.0967644205263817
18.374437246107266 	 0.09221621180461839
18.803880893409158 	 0.08784030824246272
19.2433614111598 	 0.08364256261550862
19.693113379074227 	 0.07962576508655352
20.15337685941733 	 0.07578742993672817
20.624397525140918 	 0.07211905125695708
21.106426791015547 	 0.06860720364852323
21.59972194782718 	 0.06523605937823619
22.104546299710215 	 0.061991200939449057
22.621169304690252 	 0.058862872518948534
23.14986671851161 	 0.05584809554831151
23.690920741826332 	 0.05295021897281615
24.244620170823282 	 0.05017608273006751
24.81126055137769 	 0.04753168020645393
25.39114433680347 	 0.045017753725356664
25.984581049292483 	 0.04262776849474916
26.591887445126936 	 0.04034891975536452
27.213387683753073 	 0.038166560149775444
27.849413500806442 	 0.03606967926967601
28.500304385181067 	 0.03405488939349651
29.16640776023704 	 0.032126531630024824
29.84807916924326 	 0.03029217036964354
30.545682465154318 	 0.028556166173464983
31.259590004822794 	 0.026914682772980918
31.990182847750656 	 0.02535616730735218
32.73785095948577 	 0.0238670209225948
33.50299341977232 	 0.022439168000503024
34.28601863556587 	 0.021073978313198835
35.08734455902713 	 0.01977890755949089
35.90739891061055 	 0.01855924280089585
36.7466194073669 	 0.017411137252583104
37.605453996581716 	 0.01632277140990115
38.48436109487431 	 0.015282856202565425
39.38380983288489 	 0.014289157855556076
40.30428030568053 	 0.01334834164587943
41.24626382901352 	 0.012466476462497069
42.210263201569006 	 0.011639932910788613
43.196792973341736 	 0.010857037884891443
44.20637972028532 	 0.010109503224004968
45.23956232538053 	 0.009400056634732456
46.29689226627266 	 0.008736314544984752
47.37893390963144 	 0.00811794803732262
48.48626481239081 	 0.0075346648361676
49.61947603002903 	 0.006978601420648056
50.77917243205401 	 0.006453554881145832
51.965973024861974 	 0.0059661362738709384
53.180511282142 	 0.00551240766993137
54.42343548300266 	 0.005082127113266824
55.69540905800133 	 0.004674085369718265
56.99711094326075 	 0.00429552566976527
58.329235942862034 	 0.003945509877646595
59.69249509970734 	 0.0036145176501028334
61.08761607505036 	 0.0033011704969288375
62.51534353689712 	 0.003012093554320349
63.97643955748427 	 0.002744568528369587
65.47168402004736 	 0.0024901523648728843
67.00187503509586 	 0.0022515222871041666
68.56782936641741 	 0.00203234019241522
70.1703828670383 	 0.0018252822760752793
71.81039092537353 	 0.0016281100861183222
73.48872892180388 	 0.0014461950542295364
75.2062926959241 	 0.0012750108210727398
76.96399902471158 	 0.0011112939068778618
78.7627861118706 	 0.0009613229527550185
80.60361408861345 	 0.0008234240683980522
82.48746552614585 	 0.0006995472556566933
84.41534596012986 	 0.0006019128272354536
86.38828442740449 	 0.0005392159852716054
88.40733401525063 	 0.000530324731225717
90.47357242349298 	 0.0005958776265048711
92.58810253973955 	 0.0007410888598950906
94.75205302806543 	 0.0009554058199496457
96.9665789314552 	 0.0011928378969905857
99.2328622883255 	 0.00139078327258065
101.5521127634568 	 0.001492435201876705
103.9255682936713 	 0.0014685255237684748
106.35449574860112 	 0.0013297256590659864
108.84019160690066 	 0.0011100937768452192
111.38398264826195 	 0.0008556556392089286
113.98722666160525 	 0.0006020881169540274
116.65131316981962 	 0.0003747222159199453
119.3776641714437 	 0.00018443859627318703
122.16773489967919 	 3.398908674897421e-5
125.0230145991456 	 -7.99094967051213e-5
127.94502732078735 	 -0.00016255778993091145
130.93533273536107 	 -0.00021983451816459844
133.99552696593383 	 -0.000257375126611426
137.1272434398401 	 -0.0002800749290463889
140.33215376054847 	 -0.0002916372655019027
143.61196859990787 	 -0.0002950793513451233
146.9684386112446 	 -0.0002928187033431803
150.40335536380252 	 -0.00028640841852161373
153.91855229902055 	 -0.00027736447133762073
157.5159057091623 	 -0.00026640067679991583
161.1973357388157 	 -0.0002543932607028329
164.96480740980206 	 -0.00024179716380657107
168.82033167003627 	 -0.00022879710943294647
172.76596646690365 	 -0.00021598259719982893
176.8038178457207 	 -0.0002032015563874273
180.93604107387165 	 -0.00019042896221263203
185.1648417912154 	 -0.00017788044804194068
189.49247718738218 	 -0.00016542579472636644
193.9212572065829 	 -0.00015360865577127995
198.45354578058033 	 -0.00014303740443609789
203.09176209047348 	 -0.00013402156083349416
207.83838185797572 	 -0.00012626206157334693
212.69593866686898 	 -0.00011904925560348876
217.6670253153459 	 -0.00011211877543554761
222.75429519995586 	 -0.00010480341661218685
227.960463731898 	 -9.742826013156383e-5
233.28830978641582 	 -9.017476681981284e-5
238.7406771860647 	 -8.321723403473385e-5
244.32047621864893 	 -7.656035150774068e-5
250.0306851906324 	 -7.056067469527155e-5
255.87435201685892 	 -6.499254695105509e-5
261.8545958474233 	 -5.976561532520955e-5
267.9746087325692 	 -5.517862698308308e-5
274.23765732649497 	 -5.077181901787255e-5
280.6470846309839 	 -4.6837145062503804e-5
287.2063117797828 	 -4.315919566575036e-5
293.9188398646887 	 -3.989784995370631e-5
300.7882518043099 	 -3.6663758021216994e-5
307.81821425650804 	 -3.392835451073689e-5
315.0124795755328 	 -3.128225934184215e-5
322.37488781490305 	 -2.8808863824135204e-5
329.9093687770939 	 -2.6622982274734923e-5
337.61994411113403 	 -2.45644938999546e-5
345.5107294592218 	 -2.2600733052344328e-5
353.58593665351793 	 -2.091101308701294e-5
361.84987596427464 	 -1.9265769363223157e-5
370.30695840051413 	 -1.7708992698057203e-5
378.9616980644716 	 -1.644494365744154e-5
387.81871456107234 	 -1.5031875373255908e-5
396.8827354637162 	 -1.3957272362827697e-5
406.158598837698 	 -1.279939968607363e-5
415.6512558225988 	 -1.1840548596297448e-5
425.36577327503875 	 -1.08697887111833e-5
435.30733647318874 	 -1.00451303924678e-5
445.4812518844989 	 -9.250800404886224e-6
455.89294999810596 	 -8.476155518222245e-6
466.5479882234473 	 -7.897202023533176e-6
477.45205385661313 	 -7.16402793391796e-6
488.6109671160326 	 -6.680095439587507e-6
500.03068424910947 	 -6.1094043341151645e-6
511.7173007114605 	 -5.6224202965854985e-6
523.6770544204655 	 -5.196153766891963e-6
535.9163290848514 	 -4.7635119269320866e-6
548.4416576121021 	 -4.380523109051859e-6
561.2597255954971 	 -4.0553567156157616e-6
574.3773748826587 	 -3.6968523895088594e-6
587.8016072274912 	 -3.422084112067643e-6
601.5395880274839 	 -3.1548824399844704e-6
615.5986501483508 	 -2.858606454623868e-6
629.9862978380693 	 -2.699215989247107e-6
644.7102107323869 	 -2.4029340091779967e-6
659.778247953954 	 -2.273916119241953e-6
675.1984523072501 	 -2.0516467624512894e-6
690.9790545715645 	 -1.9042965387193237e-6
707.1284778942996 	 -1.7402114596602626e-6
723.6553422869657 	 -1.613384934616556e-6
740.5684692262435 	 -1.4594104608769925e-6
757.876886362593 	 -1.3730580584477246e-6
775.5898323389001 	 -1.2300939925481323e-6
793.7167617217551 	 -1.1539253147879945e-6
812.2673500479711 	 -1.047900411913602e-6
831.2514989890632 	 -9.676006169029439e-7
850.6793416364153 	 -8.868146146361835e-7
870.5612479099865 	 -8.193022537861505e-7
890.9078300934134 	 -7.445754293526747e-7
911.7299484984921 	 -6.957198793744294e-7
933.038717262036 	 -6.272767799607585e-7
954.8455102782293 	 -5.859209190400005e-7
977.1619672696172 	 -5.314353223356559e-7
1000.0 	 -4.942999124608078e-7
