# This is an integration map on mu of the ξ multipole concerning the PP Matter.
###############
#    GaPSE    #
############### 
#
# The Cosmology considered had the following paremeters:
# 
# - Matter Power Spectrum input file: "../test/datatest/file_pk.txt"
# - Background data input file: "../test/datatest/WideA_ZA_background.dat"
# - F window function input file: "../test/datatest/F_REFERENCE_pi2.txt"
# - Integrated F window function input file: "../test/datatest/IntegrF_REFERENCE_pi2.txt"
#
# - Basic CosmoParams considered: 
#	 z_min = 0.05 	 z_max = 0.2
#	 θ_max = 1.5707963267948966 [rad] 	 h_0 = 0.7
#	 Ω_b = 0.0489 	 Ω_cdm = 0.25102 	 Ω_M0 = 0.29992
#	 b = 1.0 	 f_evo = 0.0 	 s_b = 0.0
#
# - CosmoParams about the Input Power Spectrum: 
#	 fit_left_min = 1.0e-6 	 fit_right_min = 10.0 	 
#	 fit_left_max = 3.0e-6 	 fit_right_max = 20.0 	 
#
# - CosmoParams about the Input Power Spectrum Tools: 
#	 k_max = 10.0 	 fit_max = 0.5 	 N = 1024 	 
#	 con = true 	 k_min = 1.0e-8 	 fit_min = 0.05 	 
#
# - CosmoParams about the Integrated Window Function F: 
#	 ss_step = 21.768735478453323 	 N = 1000 	 rtol = 0.01 	 
#	 llim = 0.0 	 atol = 0.0 	 rlim = Inf 	 
#	 ss_stop = 0.0 	 trap = true 	 ss_start = 0.0 	 
#
# - Computed quantities: 
# 	 effective redshift z_eff = 0.15045636096023224 
# 	 comoving s_min = 148.1920001465757 Mpc/h_0
# 	 comoving s_max = 571.7022420258767 Mpc/h_0
# 	 comoving s_eff = 435.3747095690664 Mpc/h_0
# 	 Volume of the survey V_survey = 3.845366167995967e8 Mpc^3/h_0^3
# 	 σ_0 = 15.593462966741178
# 	 σ_1 = 15.074895881392285
# 	 σ_2 = 100.85852368830226
# 	 σ_3 = 3735.1226181519773
# 	 (where σ_i = \int_{k_{min}}^{k_{max}}\frac{dq}{2 π^2} q^{2-i} P(q))
# 
# computational time needed (in s) : 0.0433
# kwards passed: 
# 		use_windows = false
# 		L = 2
# 		μ_atol = 0.0
# 		enhancer = 1.0e8
# 		pr = true
# 		N_log = 100
# 		μ_rtol = 0.01
# 
# s [Mpc/h_0] 	 	 xi
1.0 	 32.19945294801956
1.0233717986325197 	 31.630070410867877
1.0472898382363585 	 31.065881841763897
1.071766885445503 	 30.507046164989767
1.096816005273138 	 29.95355769560934
1.1224505680853065 	 29.40541095073272
1.1486842567375537 	 28.862603599856776
1.1755310738783695 	 28.325133925852242
1.2030053494233244 	 27.79300134236475
1.2311217482038903 	 27.26620792780737
1.2598952777950274 	 26.74475649134681
1.2893412965257152 	 26.228651638726788
1.3194755216767062 	 25.717899645505625
1.350314037869873 	 25.21250841347761
1.3818733056536323 	 24.712487572397713
1.4141701702890235 	 24.217847885682602
1.4472218707411348 	 23.728602457285366
1.4810460488806751 	 23.244765684817647
1.5156607589006033 	 22.766353304793252
1.5510844769528402 	 22.293383259892522
1.587336111010209 	 21.82587464285159
1.6244350109588668 	 21.36384827063451
1.6624009789266123 	 20.907326492469995
1.701254279852589 	 20.45633302166622
1.7410156523040161 	 20.010893303875942
1.7817063195457306 	 19.571033773963602
1.823348000868441 	 19.13678238575395
1.8659629231817458 	 18.70816836743936
1.9095738328780973 	 18.285221835154434
1.9542040079740532 	 17.867974179226263
1.9998772705352859 	 17.45645734629096
2.04661799939199 	 17.050704340035907
2.0944511431514696 	 16.65074871258301
2.143402233514857 	 16.256623921438447
2.193497398905059 	 15.868364407726455
2.2447633784132237 	 15.486004196411303
2.2972275360711523 	 15.109576789036618
2.3509178754572866 	 14.739115872505671
2.405863054644066 	 14.37465392012325
2.4620924014946257 	 14.016222379873565
2.519635929317015 	 13.663851466229925
2.578524352884274 	 13.31756961999518
2.6387891048289336 	 12.977403310488954
2.7004623524206823 	 12.643376295049345
2.763577014736159 	 12.315509796237388
2.8281667802300325 	 11.993821713525524
2.894266124716751 	 11.678326012743868
2.961910329772554 	 11.369032843847585
3.0311355015675785 	 11.065947564130516
3.1019785901380974 	 10.769070516112091
3.1744774091091927 	 10.478396567797223
3.248670655878376 	 10.1939143777394
3.3245979322709407 	 9.91560647380256
3.4022997656780687 	 9.643448256656985
3.4818176306889654 	 9.377407659349691
3.563193971228585 	 9.117445262009106
3.646472223212748 	 8.863513287764398
3.731696837732753 	 8.615555527502508
3.8189133047818533 	 8.373507248291094
3.908168177536266 	 8.13729487622354
3.9995090972036653 	 7.906835860667858
4.09298481845244 	 7.682038543975677
4.188645235435271 	 7.462802747812555
4.286541408420927 	 7.249019510753338
4.386725591048498 	 7.040571375784711
4.489251258218605 	 6.837333441369113
4.594173134636477 	 6.639173493514163
4.701547224022132 	 6.445952871607213
4.811430839003259 	 6.257527572324823
4.923882631706739 	 6.073749320590884
5.0389626250651505 	 5.894466848442395
5.156732244854966 	 5.719527108609373
5.277254352483538 	 5.548777183320229
5.400593278542371 	 5.3820658813235065
5.526814857144603 	 5.2192452409879335
5.655986461065006 	 5.060172702320673
5.788177037701276 	 4.904712881058409
5.923457145875805 	 4.752739358413394
6.061898993497573 	 4.6041364360394565
6.203576476104273 	 4.458800654322124
6.348565216305219 	 4.316642566789174
6.496942604146123 	 4.17758740531908
6.648787838417265 	 4.041575816563215
6.804181968927099 	 3.908564782779722
6.963207939763885 	 3.778526809306855
7.125950633568409 	 3.6514493522237603
7.292496916841446 	 3.5273338488993935
7.462935686310136 	 3.4061934711458774
7.637357916378021 	 3.2880507506239103
7.815856707684089 	 3.1729345263030124
7.99852733679671 	 3.060876451194934
8.185467307069027 	 2.9519070910661322
8.37677640068292 	 2.8460517290733938
8.572556731909325 	 2.7433264121003664
8.77291280161336 	 2.6437339552259433
8.977951553033323 	 2.5472605138698734
9.187782428863335 	 2.453872948612366
9.402517429670132 	 2.3635170729483126
9.62227117367514 	 2.2761172678811534
9.847160957933774 	 2.191577331760735
10.077306820944612 	 2.1097830350386193
10.312831606721847 	 2.0306061601665797
10.553861030365235 	 1.9539097049166798
10.800523745162529 	 1.879554465339272
11.052951411260215 	 1.8074062436636467
11.311278765939214 	 1.7373430549519804
11.57564369553304 	 1.6692617787653434
11.846187309026837 	 1.6030835513755566
12.123054013376523 	 1.5387574911527098
12.406391590588319 	 1.476261112486614
12.696351276599735 	 1.4155980807032347
12.993087842004158 	 1.3567933711637896
13.29675967466212 	 1.2998845776272119
13.607528864243331 	 1.244911804477016
13.925561288744627 	 1.1919066706197126
14.251026703029977 	 1.1408811471028668
14.584098829439856 	 1.0918193057436802
14.924955450518299 	 1.0446724321226915
15.27377850390714 	 0.9993588694521675
15.630754179458165 	 0.9557699762760627
15.996073018614878 	 0.9137807060366571
16.369930016117028 	 0.8732642090933352
16.752524724082154 	 0.8341081140053281
17.14406135851971 	 0.7962285643048013
17.544748908334597 	 0.7595797746666072
17.95480124687831 	 0.724156295461664
18.374437246107266 	 0.6899858304436959
18.803880893409158 	 0.6571141860991444
19.2433614111598 	 0.6255849324481672
19.693113379074227 	 0.5954182141178468
20.15337685941733 	 0.5665950254617257
20.624397525140918 	 0.5390517178541866
21.106426791015547 	 0.5126874223914024
21.59972194782718 	 0.4873841813574809
22.104546299710215 	 0.46303374245311874
22.621169304690252 	 0.4395629896183401
23.14986671851161 	 0.4169491492329399
23.690920741826332 	 0.3952165430542938
24.244620170823282 	 0.37441554940349864
24.81126055137769 	 0.3545901170369275
25.39114433680347 	 0.33574559540627347
25.984581049292483 	 0.31783282688393777
26.591887445126936 	 0.3007567755861282
27.213387683753073 	 0.2844079658054822
27.849413500806442 	 0.26870406377353445
28.500304385181067 	 0.2536194028424582
29.16640776023704 	 0.2391851737282616
29.84807916924326 	 0.22545726291908302
30.545682465154318 	 0.2124674834302982
31.259590004822794 	 0.20018757029047066
31.990182847750656 	 0.18853169765937045
32.73785095948577 	 0.1773987260678342
33.50299341977232 	 0.16672797730809102
34.28601863556587 	 0.1565286795662263
35.08734455902713 	 0.14685549884357166
35.90739891061055 	 0.13774710117669306
36.7466194073669 	 0.12917575804183992
37.605453996581716 	 0.12105373714157038
38.48436109487431 	 0.11329690411223045
39.38380983288489 	 0.10588759544130479
40.30428030568053 	 0.09887405462087386
41.24626382901352 	 0.09230119836725847
42.210263201569006 	 0.08614303764916331
43.196792973341736 	 0.08031325325025611
44.20637972028532 	 0.07474957686151674
45.23956232538053 	 0.06947086718552088
46.29689226627266 	 0.06453305585612798
47.37893390963144 	 0.059935185236158976
48.48626481239081 	 0.05560137201104023
49.61947603002903 	 0.05147196073609095
50.77917243205401 	 0.04757361336057186
51.965973024861974 	 0.043955674131812894
53.180511282142 	 0.04059071758209747
54.42343548300266 	 0.03740248260076742
55.69540905800133 	 0.034379507469494114
56.99711094326075 	 0.031575268838979965
58.329235942862034 	 0.028985974084808096
59.69249509970734 	 0.026539131643540607
61.08761607505036 	 0.024222546470305414
62.51534353689712 	 0.022086166850690484
63.97643955748427 	 0.020111741286647975
65.47168402004736 	 0.018235592293506676
67.00187503509586 	 0.016474649286591758
68.56782936641741 	 0.014860151182970419
70.1703828670383 	 0.01333773361342147
71.81039092537353 	 0.011886494465336725
73.48872892180388 	 0.010550230332357916
75.2062926959241 	 0.009296696565038776
76.96399902471158 	 0.008095647730431501
78.7627861118706 	 0.006997183242302524
80.60361408861345 	 0.005990581187165883
82.48746552614585 	 0.0050828070462104425
84.41534596012986 	 0.0043708125738334
86.38828442740449 	 0.003912906708358817
88.40733401525063 	 0.003841674808476905
90.47357242349298 	 0.004315396114490531
92.58810253973955 	 0.005360237542438002
94.75205302806543 	 0.006904771902724959
96.9665789314552 	 0.008612645021436622
99.2328622883255 	 0.010029610704792729
101.5521127634568 	 0.010755368228996212
103.9255682936713 	 0.01056733525767372
106.35449574860112 	 0.009561597070343512
108.84019160690066 	 0.007971589229591413
111.38398264826195 	 0.006139587673113272
113.98722666160525 	 0.004312719938389944
116.65131316981962 	 0.0026833094972372614
119.3776641714437 	 0.0013155864368979075
122.16773489967919 	 0.0002454048022666687
125.0230145991456 	 -0.0005712736277796831
127.94502732078735 	 -0.001157233288312322
130.93533273536107 	 -0.001563267991050027
133.99552696593383 	 -0.0018280614354239937
137.1272434398401 	 -0.001986246740077736
140.33215376054847 	 -0.0020662975034645777
143.61196859990787 	 -0.0020860994194391025
146.9684386112446 	 -0.0020682882411189175
150.40335536380252 	 -0.002019746311189525
153.91855229902055 	 -0.0019522773274304715
157.5159057091623 	 -0.0018733089437084367
161.1973357388157 	 -0.0017854313029075214
164.96480740980206 	 -0.0016941166603432617
168.82033167003627 	 -0.0016009928762918291
172.76596646690365 	 -0.001508032903676804
176.8038178457207 	 -0.0014165083092389588
180.93604107387165 	 -0.0013253273642047576
185.1648417912154 	 -0.00123565504265952
189.49247718738218 	 -0.001146756942070963
193.9212572065829 	 -0.0010632086349601944
198.45354578058033 	 -0.0009881556856601561
203.09176209047348 	 -0.0009235687408492017
207.83838185797572 	 -0.0008687969237959859
212.69593866686898 	 -0.0008174799513292335
217.6670253153459 	 -0.0007679887245777533
222.75429519995586 	 -0.0007162809766303789
227.960463731898 	 -0.0006649615067387872
233.28830978641582 	 -0.000613596197486537
238.7406771860647 	 -0.0005648335701878337
244.32047621864893 	 -0.0005190732576405044
250.0306851906324 	 -0.00047670213659680653
255.87435201685892 	 -0.00043815554940380454
261.8545958474233 	 -0.0004022441614221386
267.9746087325692 	 -0.0003699600245687803
274.23765732649497 	 -0.00033963206156690265
280.6470846309839 	 -0.00031280797331899654
287.2063117797828 	 -0.00028715706090108513
293.9188398646887 	 -0.0002647885125806227
300.7882518043099 	 -0.00024278576416035278
307.81821425650804 	 -0.0002239904000186368
315.0124795755328 	 -0.00020547948692607325
322.37488781490305 	 -0.00018960344583011446
329.9093687770939 	 -0.00017382015467708222
337.61994411113403 	 -0.0001601569561086917
345.5107294592218 	 -0.00014715198406961688
353.58593665351793 	 -0.00013535412481340168
361.84987596427464 	 -0.00012447037872328898
370.30695840051413 	 -0.00011405622587660775
378.9616980644716 	 -0.00010542339667419442
387.81871456107234 	 -9.622144500681881e-5
396.8827354637162 	 -8.892543401606448e-5
406.158598837698 	 -8.102559192211361e-5
415.6512558225988 	 -7.515397393281335e-5
425.36577327503875 	 -6.840118353133021e-5
435.30733647318874 	 -6.308204762141734e-5
445.4812518844989 	 -5.771054050054332e-5
455.89294999810596 	 -5.3079856967728535e-5
466.5479882234473 	 -4.8665080127232414e-5
477.45205385661313 	 -4.447047009634871e-5
488.6109671160326 	 -4.10282307853823e-5
500.03068424910947 	 -3.7537344671011204e-5
511.7173007114605 	 -3.403414624435941e-5
523.6770544204655 	 -3.188217725693433e-5
535.9163290848514 	 -2.857499132982799e-5
548.4416576121021 	 -2.657019058212578e-5
561.2597255954971 	 -2.4035891342573094e-5
574.3773748826587 	 -2.2278827571196503e-5
587.8016072274912 	 -2.0239631376792564e-5
601.5395880274839 	 -1.8485948136204985e-5
615.5986501483508 	 -1.711614131947213e-5
629.9862978380693 	 -1.5466278571703757e-5
644.7102107323869 	 -1.4120319404647903e-5
659.778247953954 	 -1.3234296201091877e-5
675.1984523072501 	 -1.1678609644613425e-5
690.9790545715645 	 -1.0967093671839655e-5
707.1284778942996 	 -9.928119148462801e-6
723.6553422869657 	 -9.073963495427388e-6
740.5684692262435 	 -8.306847656291419e-6
757.876886362593 	 -7.608345004771968e-6
775.5898323389001 	 -6.897870173465475e-6
793.7167617217551 	 -6.3714451177907135e-6
812.2673500479711 	 -5.759515921967323e-6
831.2514989890632 	 -5.327486092148669e-6
850.6793416364153 	 -4.772743844450412e-6
870.5612479099865 	 -4.449085809221287e-6
890.9078300934134 	 -4.023534272250049e-6
911.7299484984921 	 -3.6572612252919693e-6
933.038717262036 	 -3.3742172452527864e-6
954.8455102782293 	 -3.061491018666826e-6
977.1619672696172 	 -2.7836925664028375e-6
1000.0 	 -2.577227852056003e-6
