# This is an integration map on mu of the auto_lensing GR effect.
# The following parameters were used for this computation: 
# CLASS Power Spectrum input file : "../data/WideA_ZA_pk.dat"
# F window function input file : "../data/F_REFERENCE.txt"
# CLASS Background input file: "../data/WideA_ZA_background.dat"
# 	 z_min = 0.05 	 z_max = 0.2
# 	 k_min = 1.0e-8 	 k_max = 10.0
# 	 h_0 = 0.7 	 Ω_b = 0.0489 	 Ω_cdm = 0.25102 	 Ω_M0 = 0.29992
# 	 comoving s_min = 148.1920001343431 Mpc/h_0
# 	 comoving s_max = 571.7022420911966 Mpc/h_0
# 	 comoving s_eff = 435.37470960794167 Mpc/h_0
# 	 comoving z_eff = 0.15045636097417317 
# 	 Volume of the survey V_survey = 3.845366169354268e8
# 	 σ_0 = 27.075526807492697
# 	 σ_1 = 16.356260871950333
# 	 σ_2 = 101.10788255943426
# 	 σ_3 = 27.075526807492697
# 
# computational time needed (in s) : 147.9847
# kwards passed: 
# 		use_windows = false
# 		N_χs = 150
# 		Δχ_min = 1.0e-5
# 		enhancer = 1.0e10
# 		use_my = false
# 		μ_atol = 1.0e-5
# 		μ_rtol = 0.1
# 
# s [Mpc/h_0] 	 	 xi
0.1 	 1.0502729563705656e-6
0.10974987654930562 	 1.050915554332372e-6
0.12045035402587821 	 1.0264369954644437e-6
0.1321941148466029 	 1.0153640678375435e-6
0.14508287784959398 	 9.997260880943166e-7
0.1592282793341092 	 9.787992767912998e-7
0.17475284000076838 	 9.568146049081317e-7
0.19179102616724888 	 9.305325091029852e-7
0.21049041445120203 	 9.122051776207406e-7
0.23101297000831597 	 8.949987368275018e-7
0.2535364493970112 	 8.769399115379323e-7
0.2782559402207124 	 8.574754863099511e-7
0.30538555088334157 	 8.401246967934959e-7
0.3351602650938842 	 8.228519649669787e-7
0.3678379771828633 	 8.06495349631202e-7
0.40370172585965547 	 7.903038170565464e-7
0.44306214575838804 	 7.746906418103473e-7
0.4862601580065353 	 7.595698374063601e-7
0.533669923120631 	 7.449697435053174e-7
0.5857020818056666 	 7.307005268171013e-7
0.6428073117284321 	 7.16855909124348e-7
0.7054802310718643 	 7.033966308027191e-7
0.7742636826811271 	 6.902708287425047e-7
0.8497534359086443 	 6.774627620881951e-7
0.9326033468832199 	 6.649630533670341e-7
1.0235310218990261 	 6.527231696674429e-7
1.1233240329780274 	 6.407137281047833e-7
1.2328467394420661 	 6.289041450224089e-7
1.353047774579807 	 6.172440784312518e-7
1.484968262254465 	 6.056960777090873e-7
1.6297508346206442 	 5.942024753428945e-7
1.788649529057435 	 5.827156213790035e-7
1.9630406500402708 	 5.711696142394019e-7
2.154434690031884 	 5.595036093760318e-7
2.3644894126454075 	 5.476536785832806e-7
2.595024211399736 	 5.35547569054908e-7
2.8480358684358014 	 5.231233434792274e-7
3.1257158496882362 	 5.103290572750255e-7
3.4304692863149184 	 4.971310957434876e-7
3.7649358067924683 	 4.835243684300181e-7
4.132012400115337 	 4.695244024175888e-7
4.534878508128582 	 4.5517080464948403e-7
4.977023564332112 	 4.4050272435576314e-7
5.462277217684341 	 4.255614975578994e-7
5.99484250318941 	 4.1038398332154085e-7
6.579332246575681 	 3.950054337800094e-7
7.220809018385464 	 3.794667100409743e-7
7.924828983539173 	 3.638042890015099e-7
8.697490026177835 	 3.4806353899768557e-7
9.54548456661834 	 3.322818604683926e-7
10.476157527896646 	 3.1649720890508535e-7
11.497569953977356 	 3.007583301032798e-7
12.618568830660204 	 2.851087005386973e-7
13.848863713938732 	 2.6959362660211416e-7
15.199110829529339 	 2.5425966075071454e-7
16.68100537200059 	 2.3915211800016753e-7
18.30738280295368 	 2.2431669617106404e-7
20.09233002565047 	 2.097980435925621e-7
22.051307399030456 	 1.9563918014309236e-7
24.20128264794382 	 1.8188123038987344e-7
26.560877829466868 	 1.6856282954023432e-7
29.150530628251772 	 1.5571953396522016e-7
31.992671377973828 	 1.4338372970690152e-7
35.11191734215131 	 1.3158443355482932e-7
38.53528593710529 	 1.2034666696050603e-7
42.29242874389499 	 1.0969073355423102e-7
46.4158883361278 	 9.96320367407616e-8
50.94138014816378 	 9.018101214665091e-8
55.90810182512222 	 8.134302972412894e-8
61.35907273413173 	 7.3118389241314e-8
67.34150657750821 	 6.550261077155335e-8
73.90722033525779 	 5.8486547350750173e-8
81.11308307896873 	 5.205700272738326e-8
89.02150854450383 	 4.6197360381935026e-8
97.70099572992251 	 4.088971753930886e-8
107.22672220103232 	 3.6116671608627804e-8
117.68119524349979 	 3.1854017681349283e-8
129.1549665014884 	 2.8060298773158985e-8
141.74741629268047 	 2.468526841539857e-8
155.56761439304722 	 2.168447592802556e-8
170.73526474706904 	 1.9022417886457385e-8
187.3817422860385 	 1.6669709925350533e-8
205.65123083486515 	 1.4602646354334172e-8
225.7019719633919 	 1.2798024665071908e-8
247.70763559917114 	 1.1360845469666326e-8
271.85882427329403 	 1.0002352643578225e-8
298.364724028334 	 8.83089450432202e-9
327.45491628777285 	 7.821664642183006e-9
359.38136638046257 	 6.951526460249812e-9
394.4206059437656 	 6.199056081056957e-9
432.8761281083057 	 5.612734133298893e-9
475.0810162102798 	 5.040239522918551e-9
521.4008287999684 	 4.5355250412246585e-9
572.236765935022 	 4.08840796918571e-9
628.0291441834253 	 3.6904990619318836e-9
689.2612104349695 	 3.373619525852276e-9
756.463327554629 	 3.055953918630586e-9
830.2175681319744 	 2.7706670944172594e-9
911.1627561154896 	 2.5137360617234096e-9
1000.0 	 2.2818544740832487e-9
